31720
31728
31739
31720
31720
31734
31736
31760
31776
31788
31791
31780
31769
31769
31756
31740
31749
31749
31745
31751
31764
31786
31808
31828
31842
31860
31897
31936
31941
31940
31938
31926
31924
31946
31951
31938
31924
31912
31904
31896
31898
31909
31906
31908
31909
31924
31940
31954
31964
31960
31978
32004
32018
32032
32036
32057
32082
32116
32132
32143
32152
32175
32172
32192
32208
32208
32220
32252
32286
32309
32312
32304
32276
32268
32254
32276
32310
32334
32344
32376
32381
32397
32408
32436
32448
32434
32418
32414
32434
32449
32442
32449
32440
32448
32452
32456
32472
32480
32484
32489
32500
32533
32536
32565
32592
32636
32668
32686
32694
32720
32740
32775
32796
32832
32864
32873
32874
32880
32900
32898
32898
32904
32908
32920
32942
32964
32985
33024
33076
33116
33164
33180
33188
33218
33236
33256
33252
33286
33308
33332
33360
33390
33404
33424
33444
33468
33506
33552
33623
33698
33774
33828
33850
33899
33914
33946
33992
34040
34068
34064
34086
34112
34152
34176
34214
34266
34332
34370
34412
34444
34476
34512
34536
34582
34610
34626
34610
34608
34602
34620
34644
34674
34711
34724
34744
34768
34776
34800
34816
34820
34813
34823
34844
34840
34857
34877
34884
34884
34866
34892
34926
34932
34924
34918
34892
34874
34844
34802
34762
34718
34656
34574
34474
34383
34288
34202
34094
33968
33840
33742
33644
33560
33476
33376
33276
33188
33108
33044
32968
32900
32828
32745
32677
32603
32536
32464
32396
32328
32248
32158
32076
32024
31972
31924
31887
31822
31776
31736
31717
31677
31620
31577
31544
31520
31521
31516
31520
31508
31494
31460
31444
31420
31388
31360
31344
31340
31332
31292
31298
31301
31292
31314
31332
31352
31366
31388
31412
31408
31412
31406
31396
31400
31394
31412
31429
31434
31440
31448
31460
31478
31468
31456
31420
31402
31418
31440
31440
31440
31448
31478
31504
31536
31550
31552
31560
31575
31588
31585
31590
31590
31598
31613
31636
31645
31652
31650
31653
31652
31656
31654
31676
31672
31653
31668
31712
31741
31761
31780
31800
31818
31812
31806
31818
31820
31822
31808
31780
31776
31768
31768
31776
31802
31808
31816
31836
31864
31878
31893
31895
31904
31912
31918
31908
31928
31960
31962
31958
31956
31945
31930
31928
31936
31936
31929
31940
31964
31952
31958
31936
31949
31956
31956
31969
32018
32026
32044
32068
32096
32120
32148
32141
32112
32088
32080
32096
32088
32072
32108
32100
32104
32140
32152
32130
32122
32100
32080
32090
32096
32112
32152
32178
32172
32172
32172
32168
32197
32224
32235
32256
32272
32252
32248
32262
32272
32272
32252
32256
32293
32282
32288
32284
32304
32304
32326
32344
32346
32344
32354
32368
32384
32402
32408
32418
32420
32424
32416
32405
32376
32367
32360
32376
32404
32420
32430
32432
32432
32420
32424
32428
32426
32420
32440
32452
32473
32492
32516
32501
32492
32496
32482
32475
32498
32521
32532
32532
32524
32522
32530
32544
32552
32544
32526
32519
32503
32462
32448
32436
32438
32426
32428
32408
32406
32440
32472
32504
32544
32590
32617
32624
32628
32628
32622
32602
32596
32609
32592
32568
32544
32508
32508
32512
32528
32528
32512
32500
32504
32528
32522
32530
32550
32583
32614
32640
32640
32648
32646
32660
32678
32670
32664
32660
32658
32664
32652
32647
32647
32654
32660
32646
32656
32646
32634
32628
32640
32664
32690
32692
32706
32696
32680
32682
32669
32650
32646
32664
32660
32660
32652
32644
32646
32647
32639
32605
32582
32575
32568
32563
32577
32601
32594
32608
32621
32624
32643
32636
32650
32676
32696
32708
32711
32700
32710
32710
32702
32694
32690
32680
32680
32681
32700
32688
32698
32692
32680
32694
32700
32688
32680
32674
32674
32664
32668
32672
32654
32650
32628
32586
32556
32548
32548
32556
32544
32536
32518
32525
32512
32484
32469
32498
32536
32580
32630
32640
32652
32650
32670
32665
32647
32646
32634
32634
32618
32608
32604
32578
32568
32548
32544
32554
32564
32552
32544
32536
32548
32548
32558
32546
32513
32514
32484
32464
32456
32444
32454
32474
32505
32516
32553
32572
32596
32625
32650
32632
32596
32568
32540
32484
32452
32452
32464
32482
32520
32589
32669
32772
32868
32974
33064
33146
33216
33270
33310
33340
33362
33372
33352
33332
33308
33283
33280
33264
33276
33312
33329
33352
33372
33398
33414
33424
33448
33480
33508
33508
33510
33490
33468
33428
33404
33402
33372
33348
33295
33212
33160
33112
33068
33048
33007
32960
32908
32876
32838
32808
32764
32758
32734
32722
32716
32720
32712
32694
32670
32656
32678
32706
32747
32778
32796
32788
32799
32784
32760
32764
32758
32765
32767
32768
32764
32744
32731
32724
32720
32692
32664
32664
32682
32684
32680
32672
32668
32658
32666
32669
32655
32636
32606
32600
32580
32584
32585
32598
32608
32596
32602
32608
32608
32592
32588
32596
32599
32588
32532
32490
32454
32424
32380
32320
32252
32150
31988
31774
31492
31168
30818
30452
30072
29722
29418
29174
28998
28882
28868
28952
29172
29500
29957
30518
31140
31750
32379
33060
33759
34504
35312
36216
37278
38528
39980
41616
43300
44898
46264
47332
48098
48464
48336
47724
46800
45584
44088
42392
40660
39096
37728
36592
35676
34882
34292
33902
33626
33444
33324
33240
33168
33092
33054
33056
33048
32984
32853
32663
32466
32320
32213
32104
32012
31948
31885
31866
31838
31840
31828
31805
31800
31804
31812
31821
31826
31816
31796
31791
31785
31802
31788
31784
31780
31764
31751
31762
31751
31768
31772
31770
31764
31748
31718
31721
31716
31702
31706
31712
31720
31716
31736
31768
31780
31804
31840
31854
31904
31922
31940
31971
31968
31964
31980
31968
31968
31964
31960
31973
32012
32024
32028
32036
32031
32026
32056
32064
32080
32092
32097
32096
32144
32184
32226
32252
32263
32274
32269
32280
32296
32280
32263
32240
32263
32278
32300
32349
32375
32417
32470
32496
32504
32509
32518
32524
32524
32521
32519
32536
32536
32544
32556
32560
32566
32591
32584
32598
32594
32612
32656
32684
32710
32708
32708
32710
32744
32774
32804
32824
32840
32839
32825
32816
32804
32796
32818
32826
32824
32832
32860
32874
32886
32910
32934
32958
32976
33028
33062
33104
33124
33148
33174
33192
33212
33247
33255
33252
33269
33287
33304
33320
33348
33376
33402
33436
33452
33472
33504
33537
33552
33588
33628
33654
33678
33735
33780
33836
33884
33926
33964
33997
34036
34048
34060
34092
34132
34174
34188
34234
34252
34288
34324
34350
34396
34448
34514
34568
34588
34630
34664
34716
34742
34794
34823
34853
34866
34876
34918
34951
34992
35021
35044
35064
35080
35124
35156
35196
35222
35232
35248
35242
35232
35216
35212
35220
35236
35244
35256
35248
35200
35189
35152
35116
35073
35040
34984
34962
34913
34876
34823
34768
34708
34606
34500
34400
34282
34156
34044
33966
33870
33789
33700
33612
33500
33396
33302
33212
33132
33052
32978
32902
32844
32789
32720
32628
32546
32452
32360
32272
32208
32150
32103
32025
31937
31860
31785
31754
31724
31682
31648
31608
31588
31560
31536
31512
31476
31426
31406
31396
31386
31372
31380
31408
31406
31413
31394
31366
31342
31324
31292
31272
31272
31268
31274
31271
31274
31296
31280
31274
31266
31236
31234
31228
31230
31252
31268
31284
31306
31308
31321
31328
31324
31314
31326
31340
31328
31316
31316
31294
31290
31297
31332
31356
31346
31329
31333
31345
31367
31396
31419
31422
31436
31434
31448
31432
31453
31464
31514
31540
31561
31554
31561
31576
31600
31636
31652
31686
31692
31690
31692
31688
31706
31721
31729
31744
31750
31720
31708
31720
31717
31722
31704
31698
31688
31696
31698
31720
31761
31792
31804
31832
31842
31852
31856
31862
31882
31896
31930
31942
31970
31975
31988
31972
31956
31945
31930
31940
31960
31974
32009
32044
32060
32092
32114
32112
32104
32082
32066
32061
32071
32072
32110
32130
32160
32186
32201
32212
32221
32236
32230
32254
32277
32293
32306
32306
32302
32308
32296
32298
32262
32240
32252
32256
32263
32263
32256
32272
32276
32292
32312
32310
32322
32332
32314
32300
32276
32263
32278
32292
32301
32308
32327
32337
32348
32340
32336
32340
32364
32410
32428
32448
32468
32462
32484
32488
32498
32508
32512
32532
32528
32536
32530
32524
32532
32536
32542
32528
32528
32550
32568
32600
32613
32632
32642
32616
32584
32557
32550
32548
32569
32584
32582
32568
32558
32553
32594
32630
32656
32647
32656
32652
32666
32688
32694
32697
32676
32662
32637
32633
32628
32628
32616
32632
32621
32597
32584
32580
32584
32604
32618
32632
32647
32644
32644
32647
32620
32600
32600
32604
32586
32598
32643
32648
32648
32656
32677
32670
32664
32668
32684
32678
32652
32634
32634
32646
32643
32644
32647
32682
32708
32725
32742
32748
32752
32738
32742
32744
32754
32732
32720
32716
32706
32692
32680
32686
32688
32706
32718
32728
32737
32740
32752
32746
32733
32713
32700
32716
32738
32752
32762
32794
32820
32836
32836
32828
32837
32852
32868
32882
32894
32892
32884
32884
32906
32896
32890
32908
32903
32920
32914
32926
32905
32890
32880
32860
32832
32801
32775
32767
32720
32690
32668
32636
32624
32637
32640
32656
32686
32696
32688
32680
32680
32681
32687
32663
32636
32607
32568
32552
32530
32522
32508
32488
32512
32544
32560
32576
32574
32556
32556
32538
32520
32474
32442
32418
32401
32436
32480
32536
32613
32681
32764
32838
32944
33052
33146
33212
33240
33281
33312
33310
33316
33308
33266
33222
33185
33168
33159
33166
33184
33177
33192
33216
33232
33250
33282
33302
33294
33309
33324
33364
33372
33345
33310
33278
33250
33218
33191
33156
33116
33076
33060
33049
33026
32992
32956
32912
32872
32814
32775
32745
32724
32721
32714
32716
32716
32712
32705
32676
32668
32647
32633
32628
32614
32586
32584
32558
32551
32540
32528
32532
32548
32554
32548
32564
32576
32568
32570
32556
32562
32544
32548
32541
32528
32498
32488
32476
32461
32464
32476
32518
32548
32556
32572
32599
32608
32602
32596
32594
32572
32549
32534
32528
32524
32519
32524
32528
32504
32485
32472
32440
32396
32356
32286
32192
32092
31920
31692
31420
31124
30772
30405
30062
29738
29452
29208
29066
29016
29048
29186
29404
29758
30239
30840
31482
32096
32744
33368
34023
34768
35682
36724
37920
39316
40864
42500
44180
45724
46940
47836
48408
48533
48168
47434
46372
45012
43412
41696
40042
38554
37319
36272
35401
34752
34324
34048
33881
33724
33596
33468
33352
33244
33156
33076
32944
32775
32574
32384
32226
32084
31948
31822
31704
31632
31580
31526
31484
31450
31432
31416
31408
31408
31426
31432
31426
31430
31422
31414
31389
31366
31344
31328
31312
31300
31292
31306
31297
31296
31296
31288
31293
31306
31328
31340
31346
31346
31337
31357
31356
31356
31372
31396
31408
31424
31431
31440
31456
31478
31484
31500
31496
31509
31514
31536
31568
31574
31584
31604
31622
31644
31660
31688
31740
31772
31800
31800
31832
31856
31876
31914
31938
31944
31960
31984
31989
32008
32010
32028
32058
32048
32052
32052
32071
32076
32076
32100
32135
32181
32224
32230
32226
32216
32224
32236
32228
32202
32192
32172
32188
32188
32218
32228
32236
32256
32258
32232
32230
32222
32250
32280
32280
32280
32280
32284
32304
32324
32344
32370
32392
32420
32442
32477
32514
32570
32592
32612
32636
32676
32712
32724
32740
32754
32769
32772
32784
32784
32756
32760
32756
32768
32775
32780
32784
32768
32796
32812
32830
32860
32884
32912
32956
32999
33040
33055
33065
33068
33106
33144
33176
33202
33240
33273
33298
33308
33328
33396
33444
33502
33552
33612
33676
33720
33763
33798
33836
33863
33900
33956
33992
34020
34052
34081
34122
34176
34210
34240
34250
34264
34272
34304
34356
34400
34432
34497
34546
34576
34610
34636
34660
34672
34690
34680
34670
34660
34682
34708
34746
34768
34810
34852
34888
34916
34944
34972
34992
34998
35004
35015
35012
35018
35008
34982
34942
34908
34868
34830
34768
34722
34676
34624
34546
34469
34400
34334
34268
34216
34148
34052
33958
33848
33750
33645
33561
33464
33355
33232
33153
33078
32997
32934
32871
32816
32728
32658
32608
32540
32480
32428
32364
32321
32282
32228
32178
32138
32113
32080
32048
32028
32004
31955
31892
31840
31788
31726
31716
31684
31678
31660
31652
31644
31640
31636
31612
31600
31604
31600
31602
31596
31574
31581
31578
31580
31596
31593
31585
31586
31583
31560
31562
31568
31588
31596
31616
31640
31656
31664
31704
31724
31756
31776
31785
31780
31760
31764
31751
31758
31744
31744
31768
31788
31821
31836
31820
31808
31802
31780
31766
31762
31760
31793
31832
31876
31896
31926
31956
31996
32032
32050
32044
32041
32032
32020
32008
32008
32025
32018
32000
32002
32020
32037
32060
32061
32050
32040
32026
32024
32034
32057
32070
32080
32078
32058
32044
32033
32031
32004
31986
31982
32020
32036
32052
32036
32043
32036
32024
32039
32048
32061
32090
32092
32114
32132
32142
32176
32204
32244
32248
32240
32229
32230
32238
32242
32240
32247
32248
32240
32236
32224
32206
32206
32208
32204
32204
32216
32234
32260
32280
32306
32327
32330
32348
32370
32384
32393
32390
32396
32412
32405
32410
32424
32426
32428
32422
32434
32466
32484
32516
32532
32524
32518
32517
32524
32555
32556
32558
32544
32528
32512
32500
32496
32509
32508
32521
32536
32551
32546
32552
32552
32569
32596
32600
32590
32594
32605
32604
32584
32578
32564
32540
32524
32532
32537
32526
32516
32540
32530
32532
32558
32576
32584
32614
32631
32642
32652
32646
32656
32658
32660
32652
32652
32654
32630
32624
32618
32606
32596
32592
32608
32604
32590
32576
32569
32556
32552
32552
32580
32582
32572
32568
32572
32572
32568
32564
32553
32544
32556
32572
32586
32568
32556
32542
32522
32512
32519
32524
32536
32524
32519
32519
32509
32502
32508
32532
32534
32538
32538
32527
32525
32528
32542
32556
32562
32568
32553
32546
32540
32526
32524
32495
32500
32489
32516
32525
32530
32553
32540
32550
32532
32532
32528
32504
32504
32522
32533
32540
32548
32560
32548
32544
32540
32549
32536
32552
32570
32581
32583
32580
32576
32608
32619
32612
32608
32608
32608
32605
32596
32594
32602
32620
32616
32620
32605
32602
32615
32616
32608
32608
32596
32600
32604
32592
32592
32581
32588
32588
32590
32581
32576
32562
32564
32556
32550
32548
32562
32559
32560
32574
32592
32600
32613
32628
32637
32629
32647
32670
32672
32664
32656
32646
32628
32600
32588
32604
32602
32612
32610
32631
32616
32604
32612
32600
32592
32578
32568
32558
32562
32565
32558
32575
32583
32588
32584
32562
32556
32545
32556
32552
32548
32540
32540
32558
32594
32628
32647
32664
32652
32647
32664
32671
32664
32642
32626
32614
32596
32588
32558
32560
32574
32588
32594
32596
32608
32610
32618
32622
32608
32593
32586
32588
32580
32572
32552
32518
32512
32518
32516
32536
32562
32580
32614
32640
32647
32634
32628
32614
32584
32536
32517
32502
32480
32452
32458
32457
32492
32519
32550
32571
32568
32552
32528
32485
32452
32420
32396
32384
32387
32404
32426
32454
32528
32632
32734
32824
32898
32951
32978
32996
33008
33024
33044
33064
33052
33064
33088
33119
33152
33172
33154
33164
33160
33172
33194
33210
33218
33206
33223
33244
33248
33236
33249
33232
33220
33190
33166
33142
33096
33060
33040
32996
32956
32928
32892
32870
32846
32824
32808
32786
32724
32686
32638
32593
32562
32549
32533
32513
32530
32502
32492
32496
32508
32502
32514
32496
32458
32412
32386
32361
32368
32370
32370
32380
32378
32368
32357
32332
32348
32364
32384
32412
32420
32428
32420
32408
32394
32381
32360
32364
32378
32393
32402
32399
32380
32354
32346
32333
32312
32286
32264
32263
32240
32236
32221
32230
32247
32254
32244
32222
32210
32210
32204
32164
32148
32102
32004
31890
31738
31532
31280
30970
30614
30245
29876
29528
29264
29036
28924
28890
28940
29052
29264
29616
30087
30660
31259
31848
32452
33048
33674
34432
35356
36396
37572
38954
40480
42100
43744
45190
46296
47111
47602
47652
47260
46488
45436
44068
42580
40998
39479
38132
36948
35936
35140
34558
34180
33938
33752
33620
33473
33326
33214
33124
33046
32952
32775
32565
32340
32168
32020
31917
31780
31660
31536
31452
31408
31366
31316
31288
31303
31301
31285
31268
31264
31262
31258
31236
31206
31162
31128
31078
31056
31056
31050
31066
31055
31050
31034
31018
30990
30978
30976
30956
30934
30932
30940
30957
30996
31022
31053
31073
31064
31056
31060
31066
31058
31066
31056
31078
31113
31130
31148
31160
31168
31168
31193
31188
31174
31168
31146
31148
31152
31152
31158
31152
31136
31138
31136
31168
31210
31268
31318
31348
31361
31400
31428
31470
31512
31530
31532
31524
31524
31532
31538
31548
31560
31592
31586
31588
31592
31602
31608
31628
31622
31618
31620
31624
31640
31652
31666
31672
31696
31710
31724
31728
31732
31756
31782
31819
31832
31862
31892
31929
31952
31976
31975
31992
31996
32018
32008
32016
32014
32016
32016
32037
32037
32033
32061
32063
32064
32064
32102
32122
32140
32140
32158
32178
32168
32168
32176
32180
32210
32236
32278
32279
32304
32340
32386
32456
32484
32514
32520
32546
32556
32576
32573
32584
32612
32650
32688
32706
32718
32712
32722
32741
32766
32775
32790
32809
32840
32868
32906
32930
32974
33016
33072
33122
33180
33248
33320
33365
33415
33460
33508
33533
33580
33644
33698
33730
33766
33799
33844
33890
33942
33968
34002
34014
34032
34040
34056
34075
34071
34088
34104
34141
34157
34176
34216
34269
34296
34332
34358
34386
34402
34412
34413
34408
34406
34390
34372
34353
34360
34344
34328
34296
34266
34245
34204
34176
34161
34120
34064
33996
33927
33824
33744
33648
33582
33504
33423
33348
33262
33186
33106
33025
32931
32842
32775
32710
32646
32581
32508
32416
32340
32254
32168
32080
31996
31909
31853
31813
31778
31728
31690
31646
31594
31548
31538
31505
31466
31428
31404
31369
31342
31312
31269
31256
31235
31214
31216
31222
31208
31214
31203
31190
31172
31175
31163
31135
31111
31106
31081
31076
31072
31068
31034
31032
31020
31020
31018
31036
31056
31069
31056
31064
31077
31100
31132
31152
31158
31160
31160
31168
31184
31168
31156
31136
31112
31140
31144
31158
31182
31202
31220
31239
31248
31259
31280
31292
31309
31314
31340
31330
31314
31304
31288
31270
31264
31266
31272
31288
31288
31292
31308
31325
31348
31381
31398
31396
31408
31432
31456
31457
31460
31460
31460
31453
31438
31444
31432
31430
31432
31440
31452
31488
31508
31528
31534
31532
31524
31520
31519
31536
31549
31560
31564
31548
31544
31532
31530
31516
31533
31552
31570
31586
31607
31620
31640
31672
31668
31662
31674
31692
31725
31740
31746
31760
31788
31804
31809
31781
31758
31748
31736
31730
31751
31751
31772
31770
31780
31794
31808
31840
31864
31867
31896
31908
31936
31960
31988
32010
32004
31988
31957
31936
31932
31942
31934
31968
31970
31982
31992
32016
32046
32060
32037
32018
32016
32011
32007
32000
31970
31976
31960
31943
31939
31938
31950
31961
31967
31954
31972
31997
32024
32072
32118
32140
32152
32186
32196
32199
32192
32181
32164
32144
32135
32134
32142
32143
32144
32157
32152
32154
32168
32165
32167
32164
32160
32148
32134
32132
32146
32158
32162
32163
32176
32210
32218
32222
32218
32244
32263
32292
32283
32276
32286
32274
32262
32220
32204
32186
32178
32192
32204
32216
32215
32208
32216
32209
32214
32218
32209
32194
32198
32204
32220
32235
32244
32272
32278
32288
32276
32284
32292
32300
32304
32298
32316
32337
32354
32362
32364
32360
32344
32344
32336
32313
32304
32316
32302
32296
32272
32258
32256
32256
32276
32252
32252
32244
32263
32300
32316
32336
32332
32346
32358
32350
32344
32334
32332
32325
32324
32332
32354
32332
32308
32312
32297
32302
32292
32317
32332
32345
32359
32332
32328
32319
32306
32320
32324
32293
32272
32272
32274
32284
32285
32288
32304
32312
32336
32344
32360
32378
32384
32414
32412
32412
32412
32404
32404
32386
32361
32328
32302
32288
32300
32300
32314
32327
32340
32359
32374
32376
32404
32390
32421
32420
32414
32429
32420
32424
32404
32404
32396
32404
32410
32412
32424
32424
32450
32456
32474
32488
32492
32530
32516
32510
32504
32496
32480
32467
32448
32428
32432
32440
32436
32453
32472
32471
32476
32492
32528
32532
32544
32548
32538
32534
32524
32528
32536
32552
32584
32604
32606
32592
32569
32592
32596
32616
32628
32660
32690
32716
32724
32732
32724
32706
32680
32658
32656
32672
32678
32670
32661
32648
32628
32620
32605
32614
32612
32596
32588
32580
32554
32544
32536
32526
32524
32540
32584
32612
32644
32654
32657
32658
32656
32613
32574
32548
32526
32535
32524
32521
32550
32584
32636
32711
32794
32918
33028
33122
33220
33269
33306
33336
33374
33384
33366
33348
33338
33352
33348
33372
33397
33400
33398
33420
33418
33434
33444
33464
33466
33480
33503
33508
33504
33476
33465
33440
33452
33472
33462
33412
33356
33316
33262
33205
33124
33064
32997
32944
32882
32832
32792
32748
32712
32696
32669
32640
32647
32660
32704
32742
32780
32804
32826
32816
32810
32794
32780
32744
32738
32720
32720
32723
32710
32704
32710
32718
32708
32712
32720
32724
32720
32728
32744
32751
32752
32732
32707
32704
32706
32704
32687
32668
32652
32646
32646
32631
32628
32640
32647
32664
32660
32640
32652
32656
32660
32658
32640
32592
32556
32541
32502
32474
32432
32400
32380
32364
32368
32357
32310
32216
32090
31885
31624
31316
30981
30646
30316
30002
29716
29452
29273
29216
29254
29352
29532
29831
30244
30772
31358
31926
32512
33120
33724
34378
35186
36161
37200
38432
39848
41358
42936
44448
45648
46532
47110
47310
47080
46488
45578
44380
42988
41504
40040
38712
37534
36522
35689
35051
34620
34311
34116
33956
33820
33679
33567
33478
33402
33335
33223
33064
32872
32700
32564
32464
32372
32285
32168
32088
32032
31976
31940
31908
31862
31822
31806
31812
31832
31849
31874
31872
31868
31853
31822
31817
31792
31788
31774
31764
31736
31711
31680
31672
31672
31664
31676
31672
31666
31653
31664
31676
31689
31700
31732
31762
31786
31812
31809
31804
31808
31800
31794
31830
31844
31852
31878
31880
31892
31929
31932
31939
31968
31976
31986
31996
32004
32010
32012
32024
32022
32012
31994
32000
32004
32028
32042
32044
32046
32077
32096
32114
32129
32132
32150
32148
32164
32172
32164
32155
32148
32166
32178
32193
32178
32181
32188
32192
32189
32204
32212
32223
32229
32226
32238
32250
32268
32282
32278
32292
32304
32322
32326
32350
32358
32360
32362
32364
32372
32385
32422
32464
32486
32504
32528
32532
32536
32551
32552
32564
32572
32580
32596
32604
32616
32634
32674
32700
32724
32740
32760
32786
32798
32812
32810
32828
32828
32832
32864
32868
32880
32880
32869
32889
32918
32946
32968
33002
33028
33036
33064
33112
33150
33184
33234
33280
33304
33321
33359
33416
33452
33500
33532
33566
33588
33602
33604
33622
33652
33678
33724
33760
33788
33821
33858
33912
33940
33968
34002
34022
34077
34128
34160
34197
34228
34260
34276
34296
34333
34360
34394
34436
34472
34500
34526
34524
34514
34552
34580
34592
34608
34620
34652
34672
34712
34736
34738
34756
34784
34810
34820
34852
34864
34878
34888
34880
34879
34872
34877
34844
34810
34760
34720
34686
34634
34591
34536
34480
34412
34346
34276
34215
34132
34052
33968
33868
33784
33678
33565
33464
33396
33332
33228
33124
33036
32956
32872
32790
32716
32650
32568
32524
32484
32449
32406
32358
32332
32298
32272
32220
32168
32116
32068
32036
32020
32000
31956
31914
31887
31884
31864
31848
31826
31804
31773
31751
31728
31716
31713
31688
31686
31680
31688
31680
31670
31664
31664
31658
31672
31680
31688
31684
31688
31688
31676
31678
31687
31696
31711
31712
31686
31684
31682
31684
31704
31709
31720
31730
31741
31760
31780
31804
31804
31812
31816
31800
31808
31796
31806
31814
31842
31822
31826
31836
31836
31860
31852
31856
31872
31910
31918
31926
31934
31954
31956
31946
31960
31972
31977
31952
31952
31947
31936
31924
31928
31908
31929
31937
31958
31988
32004
32028
32056
32058
32068
32080
32086
32090
32068
32044
32028
32031
32021
32022
32041
32056
32068
32078
32101
32141
32170
32178
32194
32200
32214
32212
32188
32177
32179
32186
32192
32180
32160
32156
32138
32134
32141
32154
32174
32190
32214
32238
32263
32292
32325
32360
32362
32368
32364
32336
32342
32356
32372
32384
32420
32439
32444
32436
32424
32417
32432
32449
32464
32478
32481
32480
32482
32476
32466
32461
32472
32500
32492
32490
32484
32477
32482
32486
32492
32506
32506
32499
32493
32496
32501
32514
32537
32558
32588
32584
32584
32556
32521
32502
32504
32524
32536
32549
32566
32580
32590
32608
32642
32662
32665
32672
32680
32664
32648
32630
32620
32620
32633
32612
32612
32608
32612
32652
32671
32686
32698
32679
32664
32628
32626
32620
32613
32619
32640
32652
32664
32662
32660
32658
32664
32660
32664
32672
32692
32700
32706
32700
32708
32716
32709
32704
32694
32693
32694
32696
32698
32713
32704
32712
32710
32728
32744
32744
32760
32775
32804
32818
32839
32834
32816
32808
32796
32797
32800
32802
32809
32824
32812
32794
32801
32792
32760
32759
32772
32790
32808
32832
32852
32878
32888
32884
32866
32842
32814
32818
32821
32816
32825
32822
32800
32775
32749
32752
32742
32740
32757
32748
32728
32732
32760
32760
32774
32758
32749
32724
32716
32730
32722
32726
32722
32726
32737
32759
32762
32758
32750
32756
32772
32772
32772
32774
32780
32788
32786
32772
32763
32742
32752
32765
32770
32774
32773
32792
32792
32810
32824
32852
32868
32882
32900
32930
32964
32952
32950
32920
32903
32900
32908
32908
32889
32878
32888
32903
32903
32892
32880
32882
32914
32934
32908
32902
32884
32873
32840
32829
32807
32781
32796
32792
32792
32780
32774
32799
32826
32836
32852
32866
32870
32874
32850
32824
32806
32786
32770
32775
32770
32777
32775
32770
32774
32766
32767
32762
32775
32762
32796
32828
32856
32880
32864
32854
32852
32862
32852
32852
32836
32862
32870
32868
32881
32884
32880
32884
32868
32860
32884
32889
32900
32900
32923
32918
32920
32910
32917
32904
32896
32903
32910
32902
32882
32846
32828
32824
32836
32850
32856
32850
32862
32848
32844
32863
32876
32868
32858
32856
32832
32826
32808
32820
32844
32860
32884
32900
32902
32906
32908
32910
32925
32912
32899
32877
32868
32840
32860
32866
32887
32892
32870
32887
32884
32861
32836
32806
32764
32732
32720
32698
32718
32768
32824
32932
33060
33182
33304
33412
33518
33605
33660
33682
33678
33671
33652
33636
33632
33608
33599
33604
33604
33616
33636
33648
33664
33660
33654
33660
33666
33668
33674
33708
33724
33757
33772
33780
33786
33780
33780
33748
33726
33672
33629
33566
33499
33446
33400
33352
33316
33268
33228
33176
33132
33101
33102
33106
33112
33112
33120
33132
33120
33104
33092
33116
33092
33058
33040
33036
33028
33006
32988
32978
32968
32956
32960
32958
32966
32980
32980
32988
33008
33053
33064
33060
33056
33066
33044
33042
33024
33036
33056
33057
33040
33018
32992
32984
32996
33000
32984
32997
33012
33018
33042
33049
33076
33092
33100
33085
33068
33073
33048
33012
32980
32944
32896
32868
32836
32804
32762
32678
32546
32352
32120
31840
31508
31160
30792
30428
30100
29812
29628
29520
29499
29576
29722
29972
30362
30865
31472
32074
32692
33338
33969
34616
35364
36252
37255
38420
39792
41312
42892
44480
45844
46916
47684
48106
48082
47652
46848
45730
44328
42781
41164
39628
38324
37192
36234
35432
34823
34442
34178
33990
33836
33732
33628
33526
33468
33428
33408
33322
33156
32980
32838
32728
32647
32546
32445
32358
32292
32258
32222
32184
32184
32173
32154
32156
32146
32135
32116
32096
32086
32071
32024
32004
32006
32000
31986
31972
31964
31952
31920
31894
31864
31846
31844
31856
31876
31894
31910
31928
31936
31956
31976
32008
32005
31996
32016
32040
32048
32046
32052
32058
32056
32056
32058
32066
32094
32123
32130
32125
32132
32142
32155
32164
32196
32220
32226
32229
32228
32231
32221
32208
32220
32224
32200
32210
32224
32263
32318
32344
32384
32404
32408
32407
32421
32420
32414
32440
32464
32472
32484
32506
32524
32533
32544
32576
32566
32578
32604
32640
32666
32704
32714
32746
32752
32748
32751
32744
32764
32799
32814
32825
32836
32841
32866
32886
32912
32911
32896
32909
32934
32948
32946
32942
32964
32976
33001
33004
33036
33050
33076
33097
33084
33085
33100
33118
33146
33177
33200
33252
33261
33287
33318
33320
33329
33324
33317
33328
33354
33354
33364
33376
33376
33383
33408
33436
33464
33480
33525
33564
33600
33659
33703
33714
33725
33742
33762
33784
33820
33835
33864
33912
33933
33960
33991
34018
34060
34114
34173
34220
34268
34342
34392
34434
34470
34510
34546
34581
34624
34681
34708
34742
34762
34773
34778
34818
34874
34930
34954
34966
34980
35021
35048
35064
35088
35096
35132
35152
35160
35182
35196
35208
35218
35220
35244
35252
35258
35293
35330
35350
35380
35384
35400
35394
35369
35333
35300
35264
35242
35228
35172
35128
35079
35026
34972
34894
34802
34720
34663
34588
34468
34356
34254
34160
34057
33949
33829
33732
33628
33520
33444
33354
33264
33184
33104
33042
32973
32858
32786
32720
32676
32618
32574
32514
32438
32376
32328
32284
32208
32125
32053
31992
31954
31920
31864
31830
31816
31812
31784
31776
31744
31728
31728
31709
31686
31664
31645
31656
31634
31610
31585
31577
31573
31584
31596
31580
31580
31584
31590
31598
31622
31642
31676
31678
31684
31694
31709
31751
31758
31756
31732
31732
31733
31746
31738
31740
31740
31736
31738
31732
31732
31738
31760
31790
31792
31804
31820
31832
31844
31840
31827
31808
31816
31813
31840
31860
31892
31916
31952
31965
31969
31972
31980
31980
31972
31972
31956
31941
31930
31904
31884
31865
31860
31864
31887
31924
31977
32020
32056
32080
32080
32100
32108
32104
32088
32080
32080
32092
32123
32129
32134
32132
32124
32133
32142
32143
32114
32111
32130
32144
32176
32199
32233
32252
32260
32256
32245
32224
32212
32200
32200
32216
32228
32263
32292
32297
32300
32321
32349
32380
32396
32420
32420
32420
32434
32439
32447
32452
32444
32428
32424
32420
32420
32413
32420
32414
32408
32416
32448
32496
32516
32525
32540
32544
32538
32552
32558
32585
32580
32586
32601
32602
32601
32592
32610
32612
32620
32650
32684
32712
32742
32752
32724
32713
32700
32702
32684
32670
32669
32683
32670
32668
32682
32688
32703
32690
32685
32702
32718
32724
32746
32752
32775
32812
32851
32856
32868
32864
32872
32858
32835
32833
32835
32836
32822
32824
32830
32816
32796
32780
32770
32775
32812
32813
32804
32784
32788
32788
32775
32758
32754
32764
32775
32784
32796
32822
32818
32826
32848
32864
32902
32916
32912
32930
32946
32948
32932
32934
32924
32934
32943
32944
32952
32970
32967
32984
33000
33004
33020
33004
32992
32980
32980
32992
32988
32976
32972
32966
32972
33001
33009
33000
33008
33036
33029
33042
33034
33028
33040
33056
33074
33068
33056
33042
33046
33050
33040
33040
33044
33020
33012
32992
32984
32985
32974
32978
32984
32971
32992
33000
33014
33015
33028
33025
33004
32996
33005
33004
32987
32996
32973
32952
32960
32962
32964
32952
32946
32964
32962
32992
33000
33016
33024
33021
33024
33031
33020
33006
32988
32970
32934
32902
32900
32884
32884
32876
32892
32920
32968
32994
33020
33042
33032
33020
33024
33000
32992
32968
32932
32917
32920
32917
32903
32890
32900
32912
32917
32940
32958
32988
33008
32998
32991
32964
32964
32972
32981
33014
33026
33038
33042
33016
32988
32960
32946
32894
32861
32853
32836
32852
32888
32908
32950
33028
33146
33262
33372
33460
33533
33564
33610
33656
33670
33684
33694
33703
33694
33682
33671
33682
33692
33732
33740
33746
33757
33778
33808
33799
33792
33769
33770
33745
33736
33734
33718
33680
33666
33648
33600
33570
33514
33471
33414
33370
33344
33299
33252
33204
33172
33140
33119
33100
33096
33092
33084
33078
33092
33093
33100
33096
33068
33070
33056
33049
33037
33025
32995
32984
32972
32972
32970
32976
32970
32964
32976
32996
32992
32986
33000
33001
33001
33006
33002
32968
32932
32920
32919
32932
32928
32920
32902
32896
32902
32906
32929
32936
32956
32960
32930
32928
32924
32940
32940
32928
32905
32888
32864
32855
32816
32816
32800
32775
32765
32754
32722
32669
32620
32564
32474
32322
32104
31864
31574
31246
30884
30544
30250
30004
29784
29605
29552
29606
29741
29998
30374
30864
31444
32064
32647
33260
33909
34590
35273
36034
36940
38016
39268
40684
42244
43796
45256
46476
47412
48010
48128
47784
47054
46052
44764
43228
41574
39972
38524
37298
36284
35452
34764
34284
33952
33728
33560
33448
33375
33309
33260
33224
33212
33176
33090
32984
32869
32775
32706
32608
32528
32442
32391
32356
32319
32281
32272
32246
32212
32200
32188
32199
32216
32228
32242
32236
32234
32214
32222
32208
32194
32199
32186
32188
32178
32161
32140
32122
32105
32078
32072
32056
32061
32056
32064
32088
32109
32124
32164
32168
32178
32196
32182
32184
32184
32172
32168
32168
32172
32187
32192
32233
32244
32250
32263
32276
32296
32328
32360
32389
32410
32444
32473
32484
32494
32510
32521
32514
32496
32456
32433
32456
32508
32545
32576
32600
32604
32624
32648
32672
32682
32680
32692
32700
32714
32708
32696
32710
32728
32746
32740
32732
32732
32740
32762
32775
32806
32827
32850
32856
32862
32884
32884
32896
32898
32914
32920
32935
32932
32932
32912
32898
32920
32952
32988
33010
33046
33076
33132
33150
33182
33196
33216
33212
33216
33210
33192
33204
33212
33222
33228
33249
33258
33260
33287
33310
33328
33332
33354
33396
33440
33488
33516
33536
33562
33601
33617
33632
33642
33634
33630
33656
33690
33702
33720
33752
33784
33799
33830
33844
33880
33918
33949
33980
33992
34034
34092
34128
34168
34212
34250
34296
34356
34422
34477
34512
34556
34602
34670
34726
34760
34818
34848
34872
34888
34896
34902
34920
34951
34988
35026
35078
35096
35136
35176
35207
35236
35276
35296
35323
35353
35386
35408
35422
35422
35411
35408
35424
35420
35438
35456
35484
35485
35472
35486
35480
35470
35452
35428
35411
35385
35348
35292
35266
35192
35124
35056
34968
34868
34768
34672
34556
34472
34393
34290
34172
34080
33981
33862
33738
33647
33543
33456
33350
33242
33151
33045
32956
32866
32815
32740
32680
32638
32580
32544
32493
32448
32420
32384
32332
32260
32220
32156
32100
32037
31984
31936
31880
31826
31798
31764
31718
31708
31682
31676
31678
31674
31660
31660
31666
31661
31636
31632
31608
31588
31574
31568
31552
31534
31524
31502
31500
31516
31524
31520
31534
31542
31563
31581
31584
31610
31600
31580
31562
31542
31549
31532
31538
31536
31528
31558
31564
31577
31605
31608
31628
31650
31678
31704
31709
31688
31664
31650
31650
31664
31684
31672
31674
31688
31693
31702
31689
31692
31712
31700
31700
31718
31751
31786
31792
31810
31828
31840
31861
31860
31848
31843
31828
31822
31832
31840
31852
31854
31878
31890
31912
31936
31972
32002
32029
32032
32021
32000
31968
31944
31924
31916
31912
31896
31908
31906
31943
31977
32006
32016
32036
32044
32082
32088
32102
32112
32114
32112
32098
32096
32100
32076
32074
32066
32068
32068
32071
32092
32112
32142
32160
32174
32180
32182
32188
32204
32216
32218
32224
32218
32208
32202
32212
32208
32208
32188
32196
32204
32232
32262
32312
32348
32368
32390
32423
32448
32468
32484
32500
32500
32492
32470
32440
32434
32428
32426
32442
32446
32444
32441
32436
32444
32450
32460
32472
32479
32484
32512
32538
32536
32528
32540
32568
32572
32552
32558
32556
32521
32524
32512
32512
32552
32572
32596
32606
32604
32600
32606
32600
32597
32580
32580
32556
32553
32558
32556
32573
32576
32578
32584
32604
32606
32592
32588
32583
32592
32600
32602
32628
32624
32600
32584
32577
32588
32614
32628
32629
32632
32638
32658
32663
32652
32658
32660
32672
32670
32652
32644
32636
32642
32628
32630
32612
32618
32623
32618
32628
32631
32636
32660
32688
32708
32725
32740
32750
32748
32744
32752
32748
32760
32742
32725
32712
32706
32704
32708
32688
32720
32736
32738
32740
32748
32756
32764
32786
32778
32772
32775
32775
32776
32768
32754
32768
32796
32815
32808
32804
32810
32826
32820
32816
32798
32796
32796
32804
32808
32808
32808
32816
32816
32800
32775
32756
32735
32722
32710
32709
32712
32712
32711
32720
32740
32754
32775
32804
32800
32794
32800
32808
32796
32800
32816
32809
32805
32776
32760
32745
32752
32774
32768
32784
32784
32772
32775
32768
32741
32722
32708
32696
32680
32656
32643
32626
32640
32644
32658
32674
32676
32702
32734
32740
32738
32741
32760
32762
32768
32775
32775
32788
32800
32796
32788
32780
32760
32730
32710
32684
32664
32666
32656
32652
32640
32646
32654
32656
32678
32698
32740
32762
32796
32800
32792
32789
32786
32767
32734
32706
32702
32678
32654
32624
32588
32568
32540
32536
32552
32596
32618
32660
32711
32762
32826
32892
32968
33052
33121
33164
33204
33250
33270
33287
33302
33280
33276
33255
33262
33263
33268
33272
33274
33287
33300
33330
33341
33351
33347
33346
33348
33365
33400
33424
33440
33444
33442
33446
33434
33408
33352
33304
33262
33200
33154
33127
33076
33037
33005
32980
32938
32882
32833
32800
32760
32726
32740
32748
32744
32732
32728
32712
32698
32702
32706
32688
32676
32636
32628
32612
32592
32598
32589
32582
32588
32594
32617
32634
32638
32656
32653
32638
32648
32662
32647
32640
32624
32643
32654
32644
32626
32632
32657
32684
32698
32706
32680
32688
32679
32680
32672
32652
32631
32612
32610
32610
32614
32608
32616
32613
32598
32568
32524
32488
32469
32448
32376
32288
32172
31998
31780
31504
31201
30880
30544
30199
29878
29596
29376
29256
29232
29298
29420
29630
29972
30432
31018
31636
32246
32876
33496
34136
34858
35770
36800
37950
39288
40768
42356
43992
45508
46648
47474
47992
48080
47732
46994
45950
44612
43064
41454
39890
38488
37276
36240
35405
34822
34436
34189
34012
33880
33757
33656
33544
33495
33448
33364
33245
33053
32842
32671
32528
32391
32256
32136
32046
31978
31913
31868
31832
31776
31720
31706
31694
31690
31686
31678
31652
31632
31623
31602
31580
31560
31568
31556
31568
31564
31564
31564
31566
31580
31572
31552
31556
31564
31596
31608
31622
31616
31612
31610
31610
31610
31626
31622
31622
31628
31612
31623
31612
31600
31600
31632
31668
31704
31743
31771
31788
31790
31776
31784
31768
31767
31752
31746
31738
31740
31760
31785
31796
31800
31806
31818
31840
31866
31888
31908
31943
31968
31984
32009
32046
32080
32098
32092
32090
32112
32130
32152
32146
32164
32185
32192
32178
32180
32200
32230
32256
32288
32312
32344
32344
32358
32356
32352
32344
32345
32342
32356
32374
32394
32428
32456
32471
32490
32480
32460
32482
32473
32454
32464
32485
32496
32505
32498
32494
32488
32492
32484
32502
32508
32550
32583
32613
32644
32683
32712
32706
32702
32710
32714
32746
32774
32764
32767
32784
32816
32822
32832
32840
32864
32900
32916
32948
32984
33026
33044
33039
33042
33048
33068
33103
33125
33146
33186
33214
33209
33229
33240
33232
33250
33284
33314
33350
33388
33428
33504
33576
33648
33712
33782
33833
33888
33919
33958
34000
34038
34070
34098
34136
34170
34204
34240
34274
34288
34328
34344
34364
34361
34380
34420
34455
34480
34491
34490
34520
34557
34574
34618
34665
34716
34760
34792
34812
34820
34808
34832
34818
34824
34836
34834
34823
34816
34805
34762
34724
34682
34630
34586
34564
34540
34504
34445
34392
34336
34292
34232
34158
34076
33974
33894
33798
33720
33645
33552
33458
33352
33247
33157
33070
32964
32876
32796
32704
32648
32600
32556
32500
32445
32382
32317
32256
32190
32132
32092
32050
32004
31976
31945
31911
31872
31809
31751
31720
31692
31656
31612
31580
31548
31532
31504
31460
31426
31405
31384
31373
31392
31392
31390
31380
31372
31376
31366
31366
31368
31366
31353
31352
31364
31372
31366
31384
31404
31407
31416
31412
31410
31424
31447
31466
31464
31480
31501
31493
31502
31512
31532
31544
31538
31524
31512
31529
31546
31552
31544
31552
31542
31512
31488
31488
31492
31510
31522
31560
31598
31648
31676
31704
31721
31737
31751
31742
31740
31725
31705
31689
31668
31652
31644
31636
31632
31630
31649
31687
31696
31730
31757
31769
31796
31818
31860
31879
31892
31898
31902
31908
31908
31918
31924
31949
31950
31928
31936
31940
31924
31888
31874
31864
31856
31855
31848
31856
31876
31860
31852
31852
31868
31876
31889
31908
31912
31942
31982
32004
32032
32054
32069
32084
32120
32125
32157
32160
32140
32156
32136
32112
32092
32108
32116
32140
32160
32180
32168
32188
32205
32216
32238
32255
32252
32246
32232
32242
32244
32256
32288
32316
32312
32329
32338
32336
32348
32338
32336
32372
32378
32388
32412
32416
32430
32442
32438
32416
32412
32410
32424
32424
32408
32380
32370
32391
32396
32404
32416
32420
32412
32428
32441
32466
32493
32498
32512
32506
32496
32466
32448
32438
32426
32463
32454
32484
32489
32488
32501
32519
32518
32526
32532
32546
32541
32544
32560
32575
32570
32540
32510
32494
32502
32511
32518
32520
32510
32508
32518
32527
32533
32548
32560
32568
32572
32570
32590
32622
32652
32702
32726
32743
32742
32741
32734
32727
32733
32737
32736
32754
32752
32762
32748
32744
32735
32716
32704
32712
32744
32748
32754
32760
32766
32764
32736
32733
32730
32722
32728
32692
32690
32716
32728
32736
32708
32700
32684
32692
32692
32694
32680
32647
32662
32672
32684
32688
32680
32688
32677
32676
32656
32658
32672
32696
32710
32701
32679
32668
32647
32620
32600
32584
32564
32572
32590
32601
32612
32597
32600
32616
32624
32636
32637
32612
32616
32610
32633
32644
32636
32632
32616
32608
32602
32596
32590
32580
32568
32556
32560
32557
32574
32580
32590
32576
32564
32570
32576
32568
32562
32562
32549
32532
32522
32530
32544
32534
32549
32564
32568
32600
32629
32636
32644
32630
32634
32634
32642
32604
32588
32560
32540
32544
32543
32518
32501
32468
32484
32480
32466
32468
32492
32510
32541
32545
32548
32544
32544
32536
32518
32494
32482
32508
32495
32492
32494
32514
32512
32504
32496
32486
32484
32495
32474
32464
32484
32480
32488
32487
32484
32474
32480
32490
32492
32508
32545
32556
32570
32578
32580
32568
32551
32540
32524
32500
32500
32495
32504
32542
32576
32584
32588
32588
32605
32615
32623
32614
32628
32662
32682
32696
32712
32716
32714
32714
32678
32622
32584
32559
32548
32550
32552
32545
32546
32519
32531
32528
32554
32576
32576
32568
32562
32553
32554
32572
32596
32607
32613
32608
32620
32638
32640
32624
32601
32558
32548
32558
32556
32548
32562
32564
32587
32608
32623
32632
32612
32596
32588
32544
32512
32466
32444
32446
32452
32472
32510
32572
32654
32729
32814
32908
33008
33110
33176
33193
33197
33200
33204
33208
33194
33176
33146
33124
33120
33144
33183
33196
33227
33257
33268
33278
33264
33270
33260
33236
33200
33202
33228
33244
33244
33223
33212
33228
33234
33234
33200
33172
33125
33092
33064
33058
33036
33014
33007
32992
32958
32916
32878
32853
32834
32820
32797
32784
32782
32774
32768
32756
32732
32712
32714
32736
32768
32784
32774
32776
32758
32730
32700
32688
32705
32694
32674
32656
32628
32602
32576
32588
32585
32581
32578
32581
32588
32578
32598
32630
32642
32662
32670
32680
32676
32694
32712
32700
32674
32654
32664
32664
32664
32662
32650
32644
32647
32646
32630
32604
32595
32588
32552
32516
32504
32480
32442
32406
32340
32192
32018
31784
31518
31198
30862
30504
30161
29834
29528
29298
29191
29184
29267
29416
29656
30034
30541
31138
31744
32326
32940
33533
34148
34893
35794
36824
38000
39336
40820
42392
43988
45374
46388
47094
47492
47474
47044
46252
45168
43820
42336
40822
39356
38060
36944
36016
35272
34752
34388
34128
33956
33840
33716
33589
33512
33457
33418
33325
33183
32981
32792
32628
32524
32418
32334
32236
32155
32082
32025
31992
31948
31904
31850
31812
31801
31772
31748
31737
31724
31710
31691
31672
31636
31612
31604
31610
31631
31637
31632
31632
31632
31616
31604
31593
31588
31568
31536
31538
31552
31556
31564
31556
31546
31552
31566
31572
31572
31582
31624
31648
31656
31662
31648
31645
31668
31688
31696
31684
31676
31702
31726
31751
31762
31784
31808
31813
31850
31879
31903
31936
31964
31993
32020
32037
32044
32029
32016
32016
32012
31984
31965
31952
31924
31919
31936
31940
31973
32004
32040
32080
32120
32140
32151
32150
32153
32166
32189
32192
32194
32180
32178
32173
32174
32188
32208
32236
32250
32271
32292
32316
32322
32336
32344
32344
32365
32380
32396
32404
32420
32436
32446
32437
32452
32460
32471
32491
32516
32552
32576
32564
32562
32552
32564
32594
32612
32622
32615
32613
32616
32624
32636
32658
32670
32688
32692
32716
32741
32752
32788
32792
32808
32838
32873
32915
32940
32973
33001
33024
33036
33071
33088
33110
33120
33132
33158
33211
33236
33287
33328
33352
33382
33412
33424
33450
33494
33532
33558
33576
33608
33652
33700
33761
33788
33804
33836
33864
33921
33984
34044
34114
34140
34182
34252
34304
34368
34422
34438
34458
34468
34476
34508
34556
34598
34629
34640
34638
34636
34653
34696
34721
34734
34726
34754
34784
34820
34856
34880
34870
34856
34849
34888
34892
34881
34856
34838
34808
34812
34800
34796
34788
34752
34698
34648
34596
34512
34431
34365
34272
34184
34102
34000
33924
33838
33758
33682
33608
33536
33444
33366
33268
33181
33096
33024
32958
32876
32800
32696
32616
32542
32489
32428
32356
32314
32281
32246
32212
32182
32154
32108
32078
32033
31984
31964
31940
31942
31904
31872
31836
31804
31774
31740
31712
31684
31642
31602
31596
31594
31600
31613
31596
31578
31576
31572
31556
31556
31576
31538
31530
31538
31537
31556
31568
31552
31528
31535
31525
31529
31526
31522
31520
31516
31532
31554
31570
31588
31576
31574
31575
31568
31576
31597
31610
31628
31660
31707
31728
31751
31784
31764
31762
31760
31773
31788
31780
31788
31784
31777
31786
31810
31834
31840
31810
31796
31804
31804
31812
31824
31816
31804
31801
31804
31809
31820
31833
31828
31836
31872
31916
31942
31970
31984
31996
31997
32009
32035
32028
32037
32048
32072
32080
32091
32092
32076
32102
32102
32100
32098
32068
32082
32104
32116
32124
32112
32100
32100
32118
32144
32160
32186
32204
32230
32232
32223
32224
32226
32256
32288
32346
32382
32408
32420
32420
32416
32431
32448
32460
32466
32473
32472
32492
32528
32548
32537
32504
32481
32460
32458
32466
32452
32445
32455
32456
32461
32476
32517
32556
32582
32581
32584
32593
32584
32590
32582
32567
32540
32510
32528
32520
32540
32560
32576
32588
32594
32596
32624
32662
32672
32672
32690
32708
32711
32714
32718
32722
32722
32711
32704
32712
32712
32708
32718
32712
32700
32696
32696
32698
32680
32696
32700
32704
32710
32704
32718
32733
32744
32744
32760
32774
32793
32800
32836
32854
32864
32871
32862
32842
32837
32845
32856
32864
32878
32908
32928
32962
32968
32964
32952
32944
32952
32948
32936
32925
32916
32936
32936
32954
33001
33052
33065
33044
33042
33016
32989
32986
32966
32932
32908
32908
32920
32922
32920
32904
32868
32850
32848
32868
32894
32921
32919
32928
32928
32944
32936
32920
32902
32914
32916
32892
32874
32875
32878
32890
32908
32916
32936
32946
32940
32954
32949
32954
32936
32921
32946
32962
32960
32961
32954
32957
32968
32948
32944
32936
32930
32914
32910
32892
32888
32898
32918
32924
32910
32906
32898
32886
32890
32877
32864
32850
32842
32864
32882
32903
32935
32946
32942
32936
32924
32932
32951
32988
33000
32996
32988
32950
32955
32940
32944
32930
32908
32876
32848
32824
32816
32807
32802
32792
32800
32815
32826
32836
32856
32850
32844
32852
32868
32870
32848
32841
32824
32816
32836
32838
32870
32902
32933
32928
32928
32945
32988
33005
33024
33032
33004
32971
32940
32928
32896
32889
32880
32896
32888
32889
32917
32936
32952
32948
32944
32962
32984
32968
32932
32920
32924
32944
32963
32944
32944
32943
32926
32872
32836
32822
32816
32812
32798
32788
32778
32784
32792
32792
32798
32820
32834
32864
32876
32857
32860
32837
32826
32820
32840
32848
32856
32852
32846
32842
32842
32846
32844
32840
32828
32840
32832
32825
32821
32808
32793
32780
32756
32740
32732
32723
32730
32749
32756
32768
32775
32768
32772
32772
32775
32768
32774
32788
32788
32796
32788
32792
32793
32796
32786
32768
32756
32746
32764
32792
32808
32792
32772
32748
32732
32692
32670
32644
32616
32596
32600
32631
32656
32672
32686
32692
32696
32690
32692
32683
32680
32658
32644
32628
32628
32648
32652
32700
32764
32844
32917
32992
33058
33132
33185
33238
33292
33342
33356
33366
33364
33364
33376
33368
33370
33375
33373
33394
33400
33400
33414
33428
33420
33400
33422
33421
33404
33392
33404
33404
33402
33426
33448
33456
33462
33450
33400
33352
33271
33192
33133
33102
33080
33028
33002
32972
32953
32906
32850
32826
32796
32791
32775
32792
32820
32842
32840
32842
32864
32866
32837
32832
32832
32818
32801
32764
32754
32736
32724
32704
32701
32712
32753
32772
32772
32754
32740
32732
32718
32694
32688
32680
32652
32642
32628
32654
32664
32670
32678
32684
32688
32708
32710
32701
32692
32696
32680
32654
32622
32616
32616
32621
32619
32608
32628
32628
32624
32634
32646
32650
32628
32612
32582
32568
32534
32464
32364
32244
32084
31842
31562
31248
30904
30552
30225
29928
29639
29415
29276
29232
29285
29408
29605
29956
30418
30976
31581
32149
32736
33340
33941
34606
35440
36384
37449
38720
40160
41706
43296
44772
45904
46724
47248
47372
47076
46400
45446
44188
42796
41288
39812
38480
37332
36333
35522
34900
34472
34194
33996
33828
33710
33620
33517
33440
33412
33370
33272
33110
32902
32734
32588
32464
32356
32260
32156
32090
32024
31968
31908
31868
31806
31780
31766
31792
31790
31786
31764
31724
31690
31660
31644
31626
31622
31602
31590
31570
31532
31497
31485
31470
31484
31476
31478
31484
31524
31556
31560
31578
31572
31580
31572
31564
31544
31522
31516
31504
31490
31478
31472
31488
31518
31538
31560
31584
31604
31632
31676
31686
31702
31730
31744
31744
31744
31740
31748
31772
31787
31788
31800
31794
31812
31816
31853
31876
31936
31964
31968
31972
31965
31980
31964
31972
31986
32004
32016
32039
32068
32080
32093
32108
32127
32130
32136
32164
32192
32176
32160
32168
32160
32160
32160
32178
32165
32138
32125
32112
32108
32130
32156
32198
32208
32235
32250
32263
32284
32297
32314
32344
32325
32338
32340
32324
32320
32344
32357
32380
32391
32412
32434
32452
32468
32470
32480
32496
32538
32556
32576
32608
32616
32614
32628
32632
32648
32662
32670
32692
32712
32728
32740
32744
32744
32740
32760
32792
32816
32846
32880
32898
32920
32934
32964
32990
33028
33058
33094
33132
33192
33224
33248
33277
33322
33350
33360
33392
33400
33412
33442
33469
33476
33492
33504
33536
33574
33620
33650
33676
33688
33704
33734
33774
33821
33844
33884
33927
33974
33992
34016
34053
34084
34090
34136
34140
34144
34163
34170
34196
34208
34220
34248
34282
34294
34311
34361
34384
34417
34468
34504
34536
34548
34537
34534
34546
34542
34518
34464
34420
34377
34345
34311
34272
34234
34200
34142
34092
34032
33971
33872
33784
33704
33620
33500
33392
33269
33154
33053
32956
32866
32780
32717
32666
32607
32557
32470
32382
32300
32224
32134
32051
31964
31882
31792
31736
31670
31604
31558
31522
31490
31460
31456
31416
31376
31337
31320
31288
31250
31214
31202
31185
31165
31140
31116
31084
31048
31052
31030
31017
31010
31016
30994
30983
30960
30953
30956
30957
30936
30948
30944
30924
30904
30915
30920
30928
30942
30975
31005
31012
30996
30982
31000
30996
31010
31025
31032
31056
31062
31058
31042
31008
31013
31015
31022
31016
31002
31018
31022
31021
31034
31048
31060
31070
31076
31103
31092
31094
31111
31116
31126
31144
31184
31194
31184
31172
31168
31177
31186
31190
31208
31252
31264
31269
31284
31284
31285
31288
31282
31300
31300
31302
31300
31301
31302
31318
31352
31376
31394
31428
31444
31456
31444
31417
31399
31394
31430
31478
31510
31520
31521
31508
31501
31480
31488
31516
31546
31564
31566
31560
31581
31594
31629
31644
31630
31612
31624
31656
31676
31702
31698
31712
31712
31720
31737
31768
31764
31751
31758
31756
31756
31778
31781
31777
31770
31780
31781
31796
31814
31822
31870
31876
31848
31832
31821
31824
31854
31860
31888
31892
31896
31917
31922
31928
31948
31956
31980
31980
31956
31961
31998
32000
32022
32006
32012
32014
32004
31985
32001
32037
32042
32055
32086
32128
32160
32176
32176
32182
32172
32170
32192
32192
32216
32212
32229
32236
32234
32238
32232
32238
32244
32250
32262
32280
32296
32334
32332
32300
32268
32246
32236
32258
32258
32252
32248
32270
32262
32244
32256
32272
32288
32313
32312
32318
32324
32340
32355
32354
32364
32354
32332
32320
32334
32354
32352
32324
32328
32340
32346
32350
32348
32354
32350
32346
32356
32356
32370
32388
32409
32438
32452
32464
32446
32412
32397
32378
32364
32363
32359
32356
32361
32379
32402
32418
32420
32424
32426
32436
32422
32421
32412
32404
32414
32423
32419
32416
32403
32393
32406
32407
32390
32348
32360
32376
32388
32402
32416
32436
32425
32420
32436
32438
32444
32431
32416
32408
32402
32428
32460
32486
32526
32516
32486
32462
32456
32452
32464
32472
32484
32478
32466
32449
32434
32423
32413
32415
32421
32397
32376
32365
32384
32391
32400
32408
32438
32436
32425
32420
32440
32436
32436
32404
32402
32432
32460
32470
32473
32464
32420
32392
32390
32406
32426
32453
32476
32485
32496
32508
32524
32536
32519
32495
32474
32468
32466
32466
32480
32482
32498
32500
32488
32484
32496
32516
32496
32518
32502
32500
32500
32508
32504
32476
32462
32446
32444
32429
32414
32412
32432
32428
32436
32438
32430
32436
32426
32416
32398
32421
32464
32488
32494
32496
32504
32512
32500
32480
32456
32432
32420
32408
32416
32424
32430
32454
32464
32492
32502
32516
32504
32528
32550
32561
32516
32496
32484
32474
32492
32506
32542
32546
32519
32514
32508
32500
32504
32508
32500
32490
32492
32518
32519
32520
32496
32492
32496
32504
32503
32506
32526
32550
32568
32557
32560
32586
32578
32548
32526
32500
32503
32540
32562
32594
32604
32614
32642
32642
32640
32636
32636
32605
32572
32544
32544
32534
32534
32546
32568
32608
32644
32704
32770
32844
32930
33022
33094
33168
33226
33269
33287
33286
33308
33277
33262
33240
33240
33255
33276
33287
33315
33348
33363
33382
33376
33400
33423
33436
33424
33410
33404
33386
33360
33350
33348
33348
33351
33352
33348
33317
33284
33241
33206
33156
33096
33072
33032
33002
32968
32943
32900
32868
32831
32790
32786
32796
32775
32760
32750
32754
32751
32750
32740
32712
32716
32726
32700
32668
32648
32640
32662
32670
32658
32634
32642
32645
32640
32647
32656
32652
32647
32632
32626
32626
32626
32647
32658
32671
32676
32667
32658
32644
32644
32642
32632
32622
32604
32589
32592
32612
32624
32628
32613
32594
32584
32572
32556
32560
32574
32536
32502
32456
32407
32344
32299
32248
32196
32120
32020
31866
31648
31366
31052
30700
30352
30035
29724
29476
29260
29112
29050
29105
29258
29530
29924
30454
31048
31656
32254
32896
33548
34240
34984
35788
36736
37869
39196
40720
42326
43916
45314
46452
47316
47789
47836
47434
46696
45634
44304
42778
41148
39612
38256
37116
36176
35348
34662
34144
33815
33570
33396
33263
33166
33082
33024
33005
32992
32948
32839
32682
32536
32428
32346
32249
32167
32068
32006
31929
31890
31846
31820
31808
31820
31800
31776
31762
31744
31748
31751
31761
31751
31744
31732
31708
31682
31680
31674
31672
31680
31666
31640
31636
31616
31596
31588
31582
31612
31662
31709
31731
31744
31750
31764
31763
31766
31772
31765
31780
31788
31808
31826
31820
31820
31824
31836
31824
31834
31840
31866
31902
31911
31940
31968
31996
32020
32068
32122
32157
32160
32165
32144
32142
32133
32135
32153
32154
32160
32208
32218
32229
32233
32276
32316
32340
32364
32378
32402
32418
32422
32425
32432
32448
32432
32437
32444
32452
32474
32488
32514
32536
32560
32580
32580
32592
32620
32634
32636
32620
32630
32622
32626
32640
32652
32660
32678
32696
32696
32706
32712
32730
32732
32740
32751
32781
32788
32784
32800
32800
32812
32804
32796
32819
32832
32852
32902
32936
32952
32972
32976
32988
33008
33050
33072
33076
33102
33125
33156
33202
33228
33232
33246
33264
33295
33316
33352
33403
33424
33445
33476
33504
33526
33521
33536
33600
33642
33696
33724
33742
33756
33756
33768
33780
33798
33824
33872
33912
33964
34000
34054
34100
34152
34218
34243
34268
34311
34356
34412
34450
34496
34540
34598
34632
34676
34720
34758
34800
34832
34880
34891
34924
34950
34989
35006
35026
35042
35079
35100
35113
35132
35154
35173
35176
35190
35212
35228
35252
35282
35290
35309
35304
35311
35300
35284
35246
35192
35146
35103
35052
35000
34944
34870
34823
34754
34704
34664
34580
34502
34400
34268
34148
34048
33940
33838
33724
33612
33516
33394
33293
33200
33104
33024
32949
32854
32774
32696
32613
32539
32448
32372
32294
32216
32128
32048
31980
31910
31865
31816
31776
31736
31692
31673
31640
31616
31572
31524
31488
31470
31433
31400
31408
31402
31372
31348
31332
31312
31282
31244
31221
31222
31215
31180
31180
31160
31155
31170
31174
31175
31167
31176
31200
31220
31250
31254
31248
31260
31266
31284
31300
31300
31301
31297
31292
31288
31286
31306
31316
31332
31336
31346
31380
31408
31404
31400
31410
31412
31425
31426
31416
31399
31416
31442
31460
31472
31488
31503
31504
31528
31544
31566
31562
31588
31611
31648
31660
31677
31660
31660
31636
31616
31596
31588
31588
31584
31588
31581
31581
31598
31623
31656
31680
31672
31682
31717
31734
31717
31716
31716
31710
31718
31724
31722
31740
31756
31776
31793
31812
31826
31831
31830
31820
31812
31837
31861
31874
31896
31913
31922
31912
31913
31941
31936
31940
31933
31940
31948
31966
31988
32016
32036
32058
32076
32088
32104
32098
32101
32089
32096
32120
32121
32125
32120
32112
32132
32132
32138
32156
32146
32156
32154
32180
32200
32199
32186
32172
32188
32213
32229
32245
32242
32250
32270
32292
32319
32314
32312
32308
32324
32352
32377
32388
32384
32368
32376
32388
32407
32432
32440
32436
32426
32416
32414
32434
32476
32498
32486
32494
32504
32512
32485
32488
32504
32516
32536
32544
32530
32520
32524
32518
32498
32509
32533
32524
32496
32484
32466
32466
32472
32478
32473
32442
32432
32450
32468
32498
32496
32519
32502
32490
32508
32514
32522
32508
32484
32464
32500
32519
32536
32528
32551
32582
32621
32648
32684
32700
32708
32704
32692
32680
32678
32652
32648
32638
32624
32622
32633
32646
32666
32676
32688
32708
32714
32756
32791
32788
32796
32770
32764
32756
32744
32740
32724
32698
32676
32672
32678
32694
32704
32708
32712
32732
32748
32764
32786
32794
32794
32780
32773
32740
32748
32744
32742
32724
32707
32688
32692
32690
32704
32722
32746
32732
32730
32728
32736
32744
32752
32772
32796
32784
32788
32786
32770
32765
32764
32760
32746
32739
32746
32751
32747
32764
32772
32762
32774
32769
32772
32756
32748
32758
32748
32740
32726
32732
32756
32762
32759
32774
32804
32824
32828
32819
32836
32837
32838
32836
32832
32816
32804
32809
32812
32816
32796
32788
32784
32792
32800
32809
32808
32800
32792
32810
32818
32836
32876
32902
32949
32972
32980
32981
32950
32918
32918
32903
32884
32889
32877
32868
32880
32898
32896
32900
32926
32950
32950
32948
32944
32942
32925
32903
32868
32868
32864
32872
32868
32864
32846
32816
32808
32824
32832
32832
32812
32814
32815
32826
32832
32840
32852
32872
32873
32900
32898
32902
32890
32864
32820
32804
32804
32804
32792
32806
32804
32808
32812
32812
32775
32744
32756
32758
32754
32764
32754
32748
32742
32748
32756
32756
32760
32744
32755
32759
32760
32750
32740
32740
32731
32736
32749
32744
32756
32764
32794
32830
32896
32982
33062
33148
33218
33294
33375
33422
33436
33454
33442
33440
33433
33426
33410
33410
33384
33372
33378
33388
33412
33441
33458
33460
33474
33478
33496
33505
33512
33538
33547
33574
33556
33550
33525
33492
33444
33388
33338
33280
33224
33200
33138
33116
33084
33056
33036
33038
33005
32968
32940
32927
32932
32914
32912
32896
32888
32886
32872
32868
32879
32868
32848
32850
32836
32824
32808
32812
32796
32788
32802
32792
32775
32775
32789
32812
32832
32832
32837
32828
32844
32836
32832
32846
32850
32858
32852
32812
32806
32816
32814
32818
32796
32792
32784
32764
32744
32734
32729
32720
32722
32724
32733
32743
32740
32760
32753
32736
32736
32709
32680
32664
32612
32546
32493
32408
32274
32112
31892
31638
31316
30960
30602
30252
29940
29636
29396
29262
29223
29258
29373
29584
29928
30392
30968
31590
32204
32821
33436
34062
34749
35628
36672
37840
39168
40684
42300
43936
45476
46668
47532
48120
48268
47972
47296
46304
45012
43484
41864
40264
38852
37600
36540
35686
35068
34658
34379
34192
34055
33936
33832
33718
33624
33554
33481
33330
33159
32962
32797
32685
32576
32452
32346
32277
32217
32170
32110
32062
32018
31949
31902
31852
31830
31826
31812
31782
31780
31768
31756
31730
31724
31716
31689
31676
31668
31652
31639
31628
31644
31643
31638
31641
31622
31602
31588
31580
31570
31552
31552
31532
31532
31565
31599
31620
31662
31694
31713
31724
31733
31736
31748
31751
31766
31779
31780
31796
31776
31754
31744
31731
31748
31781
31820
31844
31840
31852
31860
31886
31901
31892
31890
31904
31905
31912
31930
31924
31924
31943
31928
31942
31952
31972
32000
32026
32024
32041
32070
32104
32168
32194
32216
32217
32206
32221
32236
32244
32252
32263
32304
32348
32378
32420
32448
32458
32448
32440
32436
32454
32462
32492
32534
32556
32560
32582
32578
32560
32569
32550
32538
32548
32536
32541
32562
32578
32600
32628
32640
32665
32706
32732
32756
32768
32775
32804
32846
32860
32884
32876
32846
32828
32804
32828
32848
32864
32873
32896
32913
32932
32950
32984
32998
33018
33018
33007
33026
33025
33042
33068
33070
33072
33092
33124
33144
33180
33234
33250
33280
33310
33336
33388
33432
33485
33525
33556
33582
33638
33681
33688
33716
33744
33786
33816
33848
33896
33960
34005
34058
34102
34152
34186
34232
34256
34272
34308
34344
34382
34400
34412
34434
34484
34500
34524
34560
34596
34626
34660
34708
34744
34790
34832
34879
34888
34902
34916
34920
34924
34926
34906
34896
34896
34900
34884
34912
34922
34900
34896
34874
34828
34784
34734
34682
34610
34527
34436
34356
34268
34180
34104
34040
33984
33890
33796
33712
33632
33528
33460
33380
33316
33224
33154
33056
32974
32903
32834
32765
32676
32600
32504
32430
32376
32314
32244
32194
32130
32072
32040
32004
31988
31952
31928
31910
31886
31864
31829
31802
31768
31740
31716
31702
31678
31666
31640
31612
31596
31587
31568
31570
31552
31556
31578
31578
31564
31540
31528
31500
31478
31458
31453
31434
31456
31484
31490
31508
31528
31540
31586
31597
31628
31649
31660
31670
31674
31676
31668
31668
31688
31694
31680
31668
31663
31656
31666
31662
31652
31640
31622
31615
31639
31664
31688
31710
31712
31709
31704
31700
31704
31724
31751
31751
31744
31743
31750
31748
31744
31751
31776
31804
31835
31852
31884
31893
31896
31900
31896
31874
31856
31874
31854
31848
31828
31828
31820
31830
31832
31846
31879
31911
31935
31956
31981
31996
32004
31992
31980
31956
31949
31957
31964
31961
31976
31996
32004
32022
32028
32044
32052
32056
32064
32082
32084
32100
32110
32110
32096
32080
32080
32093
32116
32135
32155
32167
32172
32144
32140
32114
32096
32104
32126
32126
32136
32160
32160
32194
32224
32280
32308
32326
32325
32329
32329
32336
32348
32364
32370
32372
32368
32378
32396
32400
32420
32430
32428
32438
32452
32450
32445
32448
32440
32433
32421
32420
32420
32412
32422
32424
32450
32483
32504
32532
32540
32556
32560
32572
32572
32576
32560
32532
32524
32528
32518
32524
32524
32514
32524
32553
32576
32600
32628
32646
32652
32628
32636
32632
32628
32620
32630
32614
32608
32605
32612
32586
32580
32573
32588
32588
32620
32656
32656
32652
32648
32634
32647
32632
32644
32649
32647
32664
32680
32690
32717
32708
32717
32716
32708
32720
32740
32744
32760
32762
32752
32740
32732
32723
32722
32728
32727
32717
32697
32676
32686
32692
32698
32712
32716
32727
32720
32740
32748
32758
32764
32754
32738
32748
32750
32734
32710
32692
32686
32692
32688
32696
32708
32700
32719
32708
32708
32704
32716
32717
32740
32754
32768
32765
32749
32724
32720
32706
32688
32680
32688
32696
32703
32713
32726
32740
32716
32711
32710
32704
32697
32702
32724
32724
32720
32709
32706
32704
32696
32690
32676
32654
32644
32634
32642
32624
32600
32592
32590
32596
32604
32612
32620
32622
32628
32630
32640
32644
32628
32604
32608
32606
32574
32570
32562
32576
32612
32608
32600
32586
32584
32564
32548
32544
32553
32562
32582
32596
32598
32597
32604
32610
32594
32596
32588
32572
32576
32585
32598
32609
32592
32593
32609
32645
32640
32652
32647
32636
32632
32634
32640
32628
32626
32628
32626
32636
32658
32670
32682
32676
32664
32660
32658
32666
32654
32640
32626
32604
32601
32582
32581
32588
32599
32614
32630
32647
32674
32728
32768
32786
32797
32776
32762
32752
32720
32698
32687
32650
32646
32632
32644
32660
32650
32647
32644
32647
32674
32684
32706
32716
32716
32712
32702
32680
32664
32676
32670
32671
32674
32668
32672
32666
32668
32670
32666
32668
32664
32668
32668
32654
32632
32632
32647
32656
32678
32688
32696
32708
32735
32720
32706
32678
32654
32644
32628
32618
32628
32638
32632
32632
32636
32676
32694
32712
32722
32720
32676
32647
32604
32584
32552
32544
32560
32592
32601
32616
32628
32638
32658
32670
32692
32710
32728
32708
32673
32646
32647
32646
32648
32660
32688
32731
32788
32868
32952
33032
33124
33176
33240
33276
33308
33316
33340
33366
33372
33374
33354
33332
33320
33304
33294
33286
33308
33320
33334
33340
33358
33356
33370
33389
33392
33407
33410
33404
33390
33396
33394
33386
33378
33360
33348
33320
33280
33234
33188
33149
33132
33102
33064
33038
33012
32978
32946
32902
32857
32836
32832
32808
32796
32790
32788
32801
32792
32775
32764
32756
32774
32775
32774
32775
32775
32768
32768
32750
32736
32729
32716
32722
32704
32685
32684
32674
32670
32676
32692
32682
32676
32678
32700
32696
32704
32712
32728
32740
32753
32752
32740
32736
32748
32764
32775
32774
32772
32775
32770
32738
32732
32700
32698
32696
32688
32676
32632
32568
32532
32514
32501
32476
32420
32328
32188
32014
31778
31470
31175
30844
30514
30185
29880
29616
29432
29332
29330
29391
29524
29762
30130
30608
31170
31751
32314
32898
33462
34068
34820
35720
36744
37924
39272
40788
42394
44018
45416
46424
47136
47517
47516
47100
46352
45318
44000
42560
41036
39583
38286
37156
36224
35480
34936
34587
34353
34206
34060
33932
33799
33684
33614
33524
33394
33200
32976
32799
32654
32569
32452
32328
32216
32138
32064
32029
32000
31964
31925
31904
31886
31864
31832
31815
31794
31780
31760
31725
31702
31688
31664
31644
31634
31639
31644
31652
31660
31656
31646
31654
31640
31640
31636
31616
31596
31572
31562
31554
31556
31546
31544
31556
31550
31548
31564
31592
31629
31650
31661
31680
31686
31688
31694
31688
31684
31667
31676
31696
31704
31726
31744
31766
31776
31808
31833
31866
31898
31932
31936
31942
31926
31913
31922
31938
31924
31912
31922
31948
31976
32018
32044
32062
32074
32090
32103
32110
32114
32112
32138
32160
32164
32168
32170
32178
32186
32197
32216
32226
32250
32272
32298
32340
32358
32370
32388
32414
32428
32420
32405
32418
32440
32460
32464
32480
32472
32468
32448
32456
32486
32502
32516
32553
32588
32596
32576
32602
32628
32640
32628
32640
32648
32686
32718
32740
32742
32740
32732
32740
32752
32761
32748
32736
32734
32750
32780
32812
32854
32855
32876
32903
32932
32974
33009
33004
33014
33030
33056
33089
33132
33159
33188
33200
33216
33252
33302
33322
33358
33386
33410
33442
33472
33500
33532
33568
33590
33622
33622
33652
33676
33684
33732
33788
33838
33892
33922
33947
33947
33977
34020
34096
34146
34184
34236
34265
34284
34336
34374
34399
34412
34436
34464
34477
34500
34541
34554
34590
34631
34665
34688
34713
34729
34772
34780
34792
34808
34808
34808
34818
34848
34856
34876
34868
34840
34854
34848
34844
34810
34786
34736
34695
34636
34588
34524
34460
34404
34324
34248
34173
34089
34020
33924
33846
33748
33658
33580
33516
33447
33382
33301
33204
33135
33048
32981
32898
32832
32760
32696
32648
32598
32538
32496
32413
32356
32330
32312
32276
32252
32222
32164
32104
32056
32020
31976
31936
31888
31854
31826
31824
31812
31784
31756
31746
31720
31701
31674
31668
31659
31678
31660
31662
31658
31652
31656
31657
31632
31611
31602
31610
31596
31590
31607
31622
31634
31644
31652
31672
31686
31669
31672
31668
31684
31676
31684
31682
31692
31696
31722
31714
31726
31741
31768
31792
31793
31776
31750
31734
31740
31742
31768
31780
31780
31772
31776
31798
31815
31804
31798
31814
31826
31846
31844
31863
31880
31904
31926
31940
31934
31937
31920
31906
31910
31912
31914
31924
31924
31940
31942
31956
31960
31991
32005
32020
32032
32060
32062
32086
32088
32084
32072
32047
32040
32045
32074
32104
32134
32138
32124
32084
32068
32062
32069
32096
32120
32140
32140
32161
32184
32220
32240
32260
32269
32268
32266
32263
32262
32260
32254
32244
32229
32208
32189
32180
32156
32148
32177
32184
32178
32174
32180
32220
32256
32288
32312
32304
32288
32260
32274
32277
32286
32284
32285
32280
32292
32300
32324
32348
32384
32425
32422
32445
32454
32456
32461
32448
32432
32408
32410
32405
32385
32384
32376
32388
32400
32416
32436
32460
32482
32500
32512
32510
32502
32506
32512
32512
32520
32516
32508
32521
32528
32536
32545
32564
32557
32564
32588
32588
32598
32612
32626
32636
32642
32656
32652
32636
32640
32665
32650
32624
32620
32636
32632
32634
32648
32664
32673
32669
32656
32667
32674
32674
32676
32660
32650
32638
32629
32600
32580
32577
32585
32604
32600
32586
32594
32588
32560
32573
32565
32564
32570
32590
32586
32588
32616
32626
32624
32628
32616
32624
32630
32630
32624
32616
32605
32610
32602
32572
32590
32592
32594
32600
32628
32620
32624
32636
32643
32625
32604
32576
32566
32558
32568
32576
32588
32612
32604
32616
32642
32648
32680
32700
32716
32712
32698
32668
32668
32662
32664
32640
32632
32636
32629
32626
32620
32608
32619
32624
32655
32684
32672
32668
32660
32654
32622
32614
32616
32616
32636
32647
32674
32677
32684
32682
32682
32680
32684
32702
32730
32733
32726
32704
32673
32656
32634
32640
32640
32644
32612
32604
32602
32604
32601
32606
32596
32570
32553
32534
32538
32564
32584
32605
32612
32640
32664
32685
32684
32676
32646
32628
32622
32604
32602
32596
32599
32588
32594
32604
32620
32626
32612
32609
32582
32558
32540
32510
32500
32502
32508
32512
32508
32496
32485
32476
32492
32496
32516
32528
32538
32549
32536
32530
32548
32568
32556
32540
32552
32556
32553
32542
32526
32516
32524
32526
32505
32495
32480
32492
32498
32504
32506
32512
32516
32516
32548
32558
32568
32554
32535
32536
32508
32496
32492
32504
32514
32518
32532
32541
32578
32589
32610
32588
32592
32593
32586
32584
32570
32577
32576
32584
32604
32612
32655
32682
32727
32742
32744
32744
32728
32722
32714
32698
32696
32690
32668
32670
32666
32640
32608
32596
32582
32586
32592
32616
32636
32658
32669
32702
32714
32740
32754
32766
32775
32772
32760
32744
32724
32732
32724
32732
32728
32712
32707
32684
32705
32687
32690
32690
32710
32724
32716
32724
32723
32708
32700
32676
32664
32646
32648
32640
32624
32647
32664
32672
32688
32684
32680
32690
32678
32664
32647
32616
32598
32614
32638
32647
32662
32706
32802
32889
32988
33084
33154
33220
33278
33272
33314
33328
33348
33356
33376
33390
33396
33381
33380
33370
33364
33376
33384
33378
33385
33388
33400
33415
33435
33434
33438
33440
33444
33455
33468
33460
33444
33414
33404
33378
33336
33280
33204
33128
33076
33040
33016
32992
32981
32980
32972
32960
32916
32894
32864
32856
32848
32836
32826
32824
32829
32829
32848
32866
32872
32866
32848
32834
32828
32836
32842
32868
32868
32846
32820
32812
32828
32822
32828
32832
32852
32850
32840
32800
32798
32808
32826
32841
32856
32876
32882
32892
32884
32884
32866
32853
32840
32808
32797
32788
32772
32752
32750
32760
32789
32796
32808
32827
32820
32836
32826
32793
32775
32743
32733
32720
32698
32680
32638
32542
32417
32244
32024
31741
31458
31156
30848
30525
30176
29884
29637
29512
29484
29542
29648
29844
30174
30636
31204
31792
32366
32941
33524
34100
34778
35620
36613
37720
39028
40476
42048
43655
45112
46238
47036
47504
47536
47196
46497
45512
44244
42808
41309
39838
38504
37357
36388
35608
35028
34621
34341
34154
34020
33888
33781
33678
33616
33562
33502
33352
33172
32980
32796
32660
32556
32440
32326
32234
32178
32132
32090
32044
32016
31992
31986
31968
31964
31952
31936
31944
31908
31872
31848
31828
31806
31811
31796
31789
31751
31740
31749
31760
31766
31751
31740
31730
31693
31685
31687
31712
31704
31708
31700
31681
31662
31632
31588
31582
31576
31604
31622
31640
31660
31704
31736
31746
31744
31732
31766
31768
31775
31765
31781
31804
31843
31828
31834
31812
31792
31803
31796
31815
31842
31864
31884
31904
31924
31930
31952
31989
32006
32018
32002
32010
32016
32029
32044
32064
32100
32128
32149
32162
32156
32164
32168
32185
32188
32207
32229
32228
32241
32236
32228
32230
32244
32254
32268
32302
32318
32349
32347
32372
32386
32384
32381
32396
32398
32372
32358
32356
32362
32390
32406
32415
32446
32457
32472
32484
32488
32492
32524
32549
32574
32617
32660
32706
32718
32716
32726
32739
32751
32765
32761
32756
32775
32797
32786
32784
32782
32799
32820
32845
32850
32874
32876
32882
32892
32916
32922
32944
32962
32980
32999
33014
33028
33048
33079
33100
33106
33125
33136
33168
33212
33228
33263
33316
33344
33370
33380
33424
33464
33500
33536
33577
33618
33656
33682
33734
33784
33840
33885
33914
33938
33988
34028
34068
34114
34156
34197
34236
34256
34252
34264
34288
34310
34324
34348
34388
34432
34468
34504
34544
34572
34612
34632
34644
34668
34682
34660
34648
34657
34662
34662
34660
34645
34642
34632
34630
34610
34616
34604
34586
34564
34516
34466
34416
34372
34304
34236
34160
34084
33980
33888
33812
33753
33688
33609
33517
33448
33376
33287
33216
33128
33040
32957
32868
32774
32684
32600
32528
32456
32382
32296
32229
32183
32124
32073
32028
31980
31924
31900
31866
31824
31798
31760
31718
31696
31678
31657
31612
31560
31512
31463
31424
31392
31366
31352
31324
31301
31272
31272
31276
31272
31270
31260
31261
31270
31248
31239
31236
31229
31228
31226
31230
31212
31214
31204
31192
31176
31194
31204
31220
31232
31232
31232
31234
31244
31239
31212
31224
31224
31220
31212
31214
31224
31228
31224
31220
31238
31250
31280
31304
31325
31364
31410
31426
31442
31429
31431
31452
31468
31464
31464
31460
31458
31474
31482
31503
31527
31536
31555
31561
31596
31625
31665
31680
31696
31702
31696
31696
31680
31688
31688
31680
31678
31684
31696
31681
31670
31660
31676
31716
31717
31730
31750
31760
31780
31805
31828
31832
31842
31852
31869
31852
31846
31844
31856
31852
31845
31864
31882
31894
31912
31936
31949
31944
31918
31918
31913
31926
31920
31924
31920
31921
31917
31924
31930
31932
31933
31968
31992
32004
32024
32042
32025
32034
32032
32034
32024
31996
31984
31982
31980
31976
31988
31986
32002
32036
32076
32104
32116
32126
32136
32148
32160
32166
32168
32157
32146
32152
32172
32194
32200
32199
32206
32196
32192
32206
32208
32196
32204
32216
32220
32236
32252
32260
32272
32268
32288
32286
32263
32263
32256
32235
32241
32250
32274
32294
32312
32324
32338
32322
32324
32333
32326
32338
32333
32330
32338
32348
32356
32338
32336
32320
32296
32270
32253
32263
32280
32287
32274
32259
32262
32268
32269
32278
32275
32279
32256
32246
32223
32236
32260
32263
32280
32293
32308
32314
32324
32345
32388
32386
32393
32376
32373
32378
32420
32428
32424
32438
32448
32457
32450
32444
32453
32446
32454
32471
32449
32430
32406
32408
32412
32394
32400
32400
32415
32412
32428
32408
32384
32364
32340
32354
32328
32340
32359
32373
32378
32372
32391
32409
32430
32444
32452
32448
32420
32400
32388
32364
32368
32360
32360
32356
32372
32372
32384
32385
32408
32424
32428
32440
32448
32474
32472
32484
32493
32500
32509
32506
32500
32488
32472
32444
32424
32388
32380
32373
32364
32376
32384
32406
32420
32446
32461
32474
32488
32514
32535
32532
32528
32519
32507
32517
32505
32500
32505
32519
32530
32546
32558
32570
32560
32560
32553
32564
32564
32564
32562
32549
32519
32512
32488
32484
32454
32430
32408
32415
32430
32432
32428
32444
32438
32449
32432
32432
32420
32411
32428
32442
32453
32457
32450
32432
32410
32410
32391
32386
32376
32379
32409
32436
32460
32471
32484
32521
32528
32552
32552
32549
32534
32528
32502
32480
32472
32456
32448
32444
32448
32464
32474
32468
32452
32462
32474
32500
32496
32492
32500
32496
32506
32480
32460
32476
32455
32444
32422
32414
32428
32432
32452
32470
32470
32478
32461
32448
32428
32416
32430
32429
32428
32424
32410
32420
32424
32422
32428
32409
32384
32370
32364
32338
32332
32320
32300
32292
32262
32284
32300
32336
32391
32478
32582
32672
32768
32880
32952
33016
33056
33080
33096
33096
33111
33130
33136
33128
33126
33128
33140
33150
33142
33151
33186
33204
33221
33244
33282
33280
33304
33324
33344
33348
33364
33372
33368
33338
33314
33276
33230
33172
33126
33061
32992
32912
32848
32794
32733
32709
32680
32672
32696
32690
32684
32676
32684
32706
32684
32670
32664
32668
32662
32650
32652
32638
32630
32647
32646
32644
32685
32702
32702
32708
32708
32717
32730
32741
32749
32743
32725
32720
32718
32728
32732
32736
32736
32740
32761
32775
32775
32775
32775
32774
32774
32758
32758
32752
32724
32716
32686
32666
32680
32674
32668
32676
32668
32662
32644
32638
32640
32600
32572
32559
32540
32560
32552
32532
32480
32376
32204
31992
31732
31431
31096
30748
30396
30062
29764
29536
29376
29316
29348
29478
29728
30074
30534
31094
31692
32274
32862
33480
34104
34788
35528
36372
37388
38612
40024
41568
43143
44608
45820
46792
47418
47644
47384
46752
45812
44576
43100
41520
39936
38496
37268
36228
35352
34620
34064
33704
33450
33272
33176
33104
33031
32960
32932
32918
32876
32788
32630
32454
32308
32213
32120
32018
31900
31808
31761
31734
31726
31732
31726
31724
31744
31746
31744
31744
31738
31726
31690
31656
31642
31636
31616
31616
31620
31628
31606
31608
31628
31657
31659
31664
31664
31688
31698
31704
31749
31760
31788
31794
31804
31814
31828
31848
31878
31882
31896
31888
31878
31868
31852
31832
31830
31832
31847
31857
31880
31910
31944
31954
31958
31973
32012
32022
32030
32044
32070
32080
32072
32072
32082
32108
32118
32108
32118
32125
32152
32168
32216
32228
32240
32246
32262
32276
32292
32304
32316
32334
32354
32376
32404
32432
32440
32442
32455
32476
32512
32548
32572
32568
32586
32584
32576
32586
32612
32656
32676
32693
32692
32714
32765
32796
32818
32818
32832
32830
32860
32888
32902
32908
32896
32906
32910
32919
32903
32901
32908
32914
32964
32988
33029
33036
33056
33030
33040
33060
33079
33092
33124
33140
33158
33164
33184
33208
33234
33248
33287
33316
33332
33374
33401
33426
33468
33500
33543
33565
33573
33600
33613
33612
33631
33650
33674
33706
33734
33772
33808
33842
33880
33922
33980
34020
34061
34092
34144
34192
34238
34288
34326
34374
34408
34443
34496
34544
34580
34616
34646
34668
34700
34758
34808
34841
34876
34912
34950
34982
35016
35054
35085
35092
35116
35132
35171
35196
35224
35236
35241
35256
35288
35320
35376
35412
35432
35454
35463
35472
35474
35480
35480
35480
35466
35456
35437
35412
35380
35354
35316
35264
35224
35182
35128
35078
35014
34946
34888
34798
34712
34626
34532
34436
34328
34228
34110
33992
33865
33746
33645
33569
33454
33336
33233
33146
33042
32964
32908
32856
32791
32728
32666
32596
32540
32482
32408
32349
32286
32218
32153
32096
32060
32020
31986
31936
31898
31858
31812
31780
31746
31720
31696
31680
31666
31640
31626
31596
31568
31546
31536
31524
31496
31470
31450
31444
31446
31446
31459
31444
31440
31448
31446
31452
31460
31464
31464
31450
31443
31428
31422
31424
31416
31394
31396
31412
31426
31452
31466
31480
31472
31482
31488
31500
31503
31512
31488
31484
31494
31494
31508
31508
31520
31524
31544
31544
31558
31571
31588
31620
31645
31666
31670
31670
31668
31644
31632
31640
31632
31636
31666
31670
31690
31692
31688
31692
31672
31657
31680
31696
31728
31752
31762
31775
31776
31780
31802
31834
31868
31908
31951
31948
31964
31988
32004
32018
32028
32048
32058
32068
32060
32052
32045
32032
31998
31984
31976
31959
31946
31932
31921
31920
31924
31918
31912
31909
31926
31970
32000
32020
32057
32066
32072
32096
32116
32108
32097
32098
32092
32094
32108
32134
32144
32152
32150
32178
32204
32224
32248
32260
32268
32301
32334
32360
32380
32385
32374
32370
32397
32411
32404
32428
32420
32414
32413
32404
32429
32450
32462
32477
32476
32484
32486
32500
32480
32472
32466
32444
32432
32434
32442
32436
32446
32464
32484
32486
32484
32486
32504
32528
32527
32532
32528
32551
32550
32554
32560
32546
32544
32548
32522
32518
32519
32496
32492
32493
32512
32524
32544
32556
32564
32568
32578
32578
32599
32602
32605
32592
32594
32594
32593
32585
32582
32588
32612
32628
32636
32644
32638
32644
32632
32628
32614
32612
32612
32615
32612
32628
32624
32608
32604
32617
32634
32650
32680
32706
32728
32746
32736
32764
32775
32768
32756
32753
32741
32720
32728
32724
32741
32741
32736
32729
32720
32702
32674
32677
32672
32668
32688
32702
32706
32687
32662
32658
32656
32674
32688
32703
32696
32704
32736
32750
32775
32800
32793
32786
32768
32760
32774
32772
32800
32820
32836
32842
32856
32866
32863
32844
32839
32812
32794
32806
32798
32811
32805
32793
32775
32750
32732
32723
32704
32692
32692
32698
32705
32698
32704
32720
32732
32754
32792
32820
32832
32824
32828
32824
32796
32796
32798
32806
32804
32797
32808
32812
32813
32836
32806
32790
32784
32820
32840
32852
32852
32864
32872
32882
32876
32878
32865
32848
32840
32824
32794
32784
32756
32758
32760
32741
32718
32694
32684
32694
32720
32732
32732
32732
32752
32746
32756
32775
32800
32824
32812
32804
32784
32780
32770
32752
32730
32713
32692
32668
32632
32620
32644
32686
32754
32824
32914
32996
33096
33194
33276
33336
33384
33412
33426
33404
33398
33390
33378
33372
33367
33364
33388
33416
33448
33488
33510
33526
33542
33544
33547
33546
33558
33576
33588
33614
33634
33628
33616
33585
33556
33517
33464
33412
33369
33308
33236
33204
33196
33188
33166
33120
33072
33024
32980
32948
32920
32908
32882
32877
32872
32875
32861
32860
32848
32818
32806
32788
32784
32770
32760
32775
32786
32775
32742
32750
32744
32754
32762
32764
32762
32783
32794
32793
32804
32834
32834
32834
32840
32852
32860
32856
32836
32800
32775
32756
32742
32736
32756
32762
32780
32784
32775
32764
32772
32772
32796
32814
32834
32840
32848
32826
32812
32809
32775
32740
32692
32646
32604
32570
32540
32480
32380
32237
32016
31738
31436
31131
30800
30456
30134
29833
29596
29468
29440
29514
29640
29893
30276
30789
31356
31972
32556
33181
33842
34500
35243
36080
37088
38240
39560
41052
42586
44144
45588
46752
47604
48087
48108
47684
46904
45877
44540
42988
41352
39784
38410
37248
36276
35456
34812
34396
34128
33940
33798
33680
33568
33492
33440
33412
33382
33274
33136
32948
32766
32644
32548
32444
32336
32236
32152
32092
32060
32051
32022
32006
31989
31997
31998
32002
32008
32008
32016
32007
32002
32000
31986
31980
31967
31924
31901
31876
31853
31840
31820
31818
31822
31815
31816
31812
31820
31822
31824
31824
31816
31846
31876
31890
31920
31932
31946
31946
31954
31968
31980
31986
31972
31968
31952
31954
31933
31941
31960
31972
31980
32018
32066
32078
32096
32117
32136
32165
32189
32196
32210
32206
32216
32224
32216
32226
32248
32248
32238
32244
32288
32308
32324
32348
32384
32410
32431
32439
32438
32416
32384
32352
32345
32352
32368
32386
32412
32460
32494
32540
32582
32604
32622
32649
32672
32700
32706
32688
32711
32713
32704
32689
32692
32698
32710
32724
32754
32770
32782
32804
32820
32838
32860
32876
32873
32885
32882
32872
32848
32847
32868
32876
32888
32908
32960
32972
32982
32986
33002
33018
33020
33032
33072
33096
33098
33088
33108
33127
33162
33223
33244
33262
33296
33324
33360
33384
33412
33442
33462
33484
33504
33545
33584
33626
33664
33691
33713
33739
33770
33804
33851
33866
33893
33914
33949
33978
34008
34029
34062
34104
34136
34188
34232
34271
34300
34354
34404
34468
34504
34522
34556
34564
34612
34676
34702
34740
34796
34844
34878
34892
34904
34912
34934
34948
34970
35002
35010
35032
35050
35062
35074
35078
35104
35118
35104
35094
35124
35154
35186
35213
35220
35232
35220
35216
35224
35180
35136
35076
35022
34976
34925
34872
34800
34726
34653
34562
34469
34395
34308
34208
34129
34048
33968
33892
33817
33744
33665
33576
33464
33350
33256
33136
33036
32955
32860
32784
32692
32604
32548
32472
32415
32361
32312
32268
32212
32180
32124
32080
32012
31959
31908
31886
31879
31840
31800
31771
31736
31710
31689
31672
31688
31684
31664
31652
31631
31620
31620
31604
31591
31570
31546
31524
31508
31492
31470
31476
31495
31508
31512
31524
31544
31548
31551
31564
31608
31628
31648
31644
31648
31622
31588
31588
31600
31602
31590
31581
31573
31568
31588
31596
31645
31726
31765
31784
31816
31824
31839
31832
31840
31844
31830
31832
31824
31832
31836
31840
31840
31838
31839
31844
31854
31864
31870
31864
31868
31848
31849
31856
31864
31900
31902
31922
31930
31942
31924
31942
31928
31930
31929
31954
31980
31988
31988
31996
32006
32004
31980
32004
32010
32014
32029
32029
32046
32064
32056
32040
32036
32068
32086
32106
32122
32153
32192
32212
32222
32228
32238
32246
32238
32248
32246
32263
32276
32292
32293
32294
32294
32280
32282
32287
32300
32314
32329
32336
32340
32356
32342
32354
32360
32350
32352
32348
32356
32354
32356
32374
32372
32368
32384
32388
32392
32400
32389
32378
32358
32352
32356
32356
32396
32420
32445
32438
32425
32410
32391
32400
32413
32424
32436
32484
32505
32524
32540
32537
32556
32544
32528
32525
32528
32527
32510
32506
32516
32492
32478
32495
32528
32540
32564
32558
32572
32588
32616
32660
32678
32704
32708
32712
32725
32742
32736
32739
32736
32734
32714
32700
32694
32710
32710
32711
32728
32730
32736
32741
32722
32751
32752
32760
32760
32766
32774
32796
32812
32792
32780
32741
32716
32680
32668
32660
32676
32704
32728
32760
32788
32796
32764
32753
32748
32742
32718
32714
32692
32686
32688
32720
32717
32700
32690
32702
32698
32708
32720
32729
32724
32744
32768
32768
32766
32784
32784
32768
32760
32756
32748
32747
32736
32720
32710
32710
32712
32724
32760
32782
32804
32825
32818
32792
32784
32782
32784
32800
32804
32784
32768
32770
32775
32770
32764
32758
32752
32744
32751
32756
32744
32736
32732
32738
32756
32760
32754
32750
32732
32721
32712
32712
32714
32724
32728
32732
32742
32736
32728
32734
32730
32710
32706
32704
32704
32716
32709
32684
32690
32696
32684
32678
32679
32668
32666
32672
32694
32704
32726
32732
32736
32728
32713
32710
32688
32692
32690
32676
32669
32634
32639
32666
32666
32680
32656
32654
32672
32686
32688
32666
32647
32624
32624
32620
32642
32647
32674
32676
32692
32712
32698
32696
32696
32685
32684
32704
32704
32702
32706
32696
32704
32708
32720
32736
32732
32722
32723
32730
32764
32772
32784
32778
32775
32768
32774
32784
32784
32784
32764
32744
32734
32726
32720
32704
32684
32680
32682
32688
32668
32664
32669
32680
32686
32696
32677
32678
32681
32704
32720
32724
32734
32722
32720
32700
32680
32688
32684
32661
32622
32596
32562
32536
32510
32500
32480
32490
32514
32560
32608
32685
32780
32880
32960
33058
33130
33208
33260
33316
33354
33376
33376
33370
33336
33320
33312
33287
33287
33300
33328
33340
33345
33342
33346
33349
33388
33404
33408
33404
33420
33410
33390
33368
33348
33312
33313
33296
33272
33258
33224
33192
33166
33132
33084
33044
33001
32972
32944
32898
32852
32816
32775
32744
32740
32708
32684
32668
32668
32682
32676
32692
32698
32694
32658
32616
32584
32564
32568
32548
32546
32548
32544
32541
32557
32553
32556
32580
32596
32604
32640
32637
32640
32642
32626
32605
32592
32576
32560
32544
32530
32556
32578
32572
32573
32596
32601
32600
32608
32634
32677
32711
32720
32722
32706
32704
32704
32696
32672
32656
32624
32576
32538
32494
32472
32450
32391
32306
32164
31968
31751
31472
31150
30812
30473
30120
29792
29512
29344
29268
29284
29374
29541
29818
30204
30745
31352
31956
32556
33162
33760
34408
35240
36231
37304
38528
39890
41388
42968
44541
45820
46760
47384
47623
47484
46954
46080
44953
43596
42096
40564
39146
37900
36808
35888
35204
34738
34414
34186
34021
33904
33775
33653
33550
33490
33402
33256
33074
32873
32682
32590
32524
32428
32336
32263
32176
32101
32032
31984
31934
31880
31837
31820
31810
31786
31770
31732
31696
31660
31628
31614
31598
31591
31572
31558
31563
31536
31536
31533
31534
31524
31492
31484
31452
31448
31450
31457
31466
31474
31472
31480
31490
31524
31560
31556
31559
31572
31588
31596
31591
31604
31604
31610
31612
31604
31606
31609
31610
31620
31604
31614
31633
31672
31694
31712
31737
31751
31764
31762
31772
31784
31780
31800
31812
31826
31821
31828
31838
31860
31887
31924
31954
32002
32021
32052
32066
32076
32078
32085
32086
32102
32104
32112
32118
32130
32153
32164
32154
32176
32184
32198
32202
32228
32228
32236
32280
32280
32288
32300
32296
32316
32324
32316
32316
32340
32378
32391
32405
32400
32418
32436
32458
32464
32472
32472
32504
32534
32541
32560
32581
32584
32588
32588
32597
32604
32605
32622
32650
32688
32691
32714
32744
32756
32760
32758
32768
32792
32806
32810
32820
32856
32875
32896
32948
32954
32980
32992
33020
33064
33104
33136
33180
33209
33238
33274
33287
33306
33324
33336
33356
33380
33414
33434
33470
33500
33528
33544
33596
33632
33668
33688
33710
33759
33810
33856
33892
33926
33976
34009
34070
34088
34104
34128
34154
34183
34190
34232
34276
34309
34340
34384
34394
34415
34436
34474
34522
34564
34580
34594
34596
34608
34636
34660
34678
34708
34754
34770
34812
34834
34866
34890
34901
34902
34904
34880
34876
34864
34823
34802
34768
34736
34680
34636
34574
34520
34452
34376
34298
34228
34150
34080
34000
33927
33842
33774
33683
33589
33516
33457
33394
33316
33224
33152
33047
32964
32860
32775
32720
32660
32594
32534
32488
32446
32408
32352
32284
32229
32172
32143
32104
32048
31988
31964
31928
31893
31862
31836
31809
31785
31758
31748
31738
31740
31744
31732
31734
31724
31720
31684
31676
31644
31641
31616
31588
31572
31544
31542
31536
31571
31567
31577
31600
31612
31610
31626
31652
31668
31696
31704
31706
31717
31716
31724
31732
31732
31716
31717
31724
31724
31740
31757
31780
31819
31816
31798
31764
31744
31738
31732
31728
31728
31751
31788
31824
31834
31858
31888
31896
31908
31900
31896
31903
31890
31903
31907
31900
31880
31874
31852
31876
31878
31872
31878
31876
31886
31892
31906
31940
31978
31980
31974
31972
31996
31992
31998
32020
32022
32028
32044
32070
32082
32096
32078
32058
32050
32044
32071
32068
32072
32093
32104
32109
32114
32104
32101
32114
32111
32135
32150
32149
32161
32156
32168
32168
32164
32164
32156
32138
32148
32151
32164
32192
32216
32225
32230
32216
32201
32192
32210
32240
32245
32263
32248
32252
32228
32212
32221
32219
32204
32208
32232
32260
32263
32276
32297
32304
32320
32332
32333
32357
32384
32409
32441
32481
32500
32509
32496
32505
32488
32492
32506
32518
32530
32536
32528
32524
32516
32516
32514
32500
32495
32484
32493
32477
32470
32476
32473
32472
32472
32487
32498
32494
32518
32544
32558
32560
32541
32528
32506
32519
32518
32496
32476
32482
32468
32478
32484
32500
32532
32540
32548
32560
32566
32570
32576
32566
32556
32564
32553
32552
32558
32584
32548
32544
32541
32540
32559
32570
32564
32570
32590
32592
32592
32604
32612
32632
32632
32630
32646
32656
32658
32647
32646
32650
32655
32642
32634
32636
32636
32642
32648
32676
32712
32716
32713
32712
32730
32725
32726
32713
32704
32704
32728
32748
32754
32784
32790
32792
32788
32802
32820
32844
32850
32882
32869
32854
32842
32824
32806
32796
32772
32780
32763
32775
32775
32775
32768
32788
32775
32792
32775
32787
32801
32832
32834
32828
32825
32816
32810
32802
32807
32792
32776
32768
32764
32775
32809
32842
32844
32850
32856
32852
32850
32848
32830
32818
32800
32786
32770
32762
32740
32736
32732
32716
32720
32728
32728
32733
32736
32747
32769
32774
32784
32768
32762
32744
32726
32712
32722
32742
32764
32774
32772
32760
32750
32752
32752
32740
32748
32751
32734
32712
32745
32760
32775
32775
32765
32771
32764
32748
32744
32736
32736
32724
32714
32712
32728
32713
32712
32706
32702
32706
32696
32712
32704
32710
32712
32725
32734
32744
32748
32724
32708
32698
32664
32646
32625
32612
32646
32660
32685
32700
32712
32732
32748
32745
32741
32712
32696
32706
32700
32704
32732
32748
32745
32756
32740
32736
32726
32736
32769
32775
32797
32792
32775
32770
32746
32741
32748
32730
32734
32736
32712
32688
32686
32667
32664
32672
32668
32655
32668
32664
32674
32698
32700
32700
32696
32700
32690
32706
32704
32700
32702
32706
32718
32737
32736
32738
32743
32765
32774
32784
32775
32772
32764
32780
32762
32743
32734
32740
32752
32748
32736
32736
32720
32706
32722
32720
32710
32730
32720
32699
32696
32692
32692
32698
32722
32748
32740
32734
32724
32704
32688
32671
32662
32662
32639
32638
32628
32647
32632
32624
32632
32654
32650
32652
32652
32660
32644
32600
32520
32464
32420
32416
32424
32450
32512
32568
32650
32740
32852
32946
33064
33170
33237
33260
33271
33292
33308
33317
33311
33268
33245
33236
33252
33274
33300
33340
33345
33352
33362
33376
33400
33434
33464
33464
33460
33452
33480
33487
33476
33472
33484
33499
33508
33480
33456
33414
33375
33313
33257
33232
33184
33152
33135
33086
33056
32996
32956
32920
32892
32870
32858
32852
32832
32820
32812
32800
32784
32772
32752
32742
32725
32693
32682
32672
32676
32686
32682
32668
32652
32638
32625
32612
32610
32596
32606
32612
32620
32644
32671
32660
32660
32657
32668
32668
32654
32624
32596
32608
32620
32612
32620
32628
32620
32620
32638
32648
32644
32664
32652
32656
32668
32676
32690
32679
32665
32637
32608
32584
32552
32516
32456
32392
32325
32238
32103
31942
31736
31512
31238
30936
30610
30276
29936
29654
29436
29342
29335
29382
29498
29703
30048
30522
31071
31640
32204
32799
33384
33989
34724
35610
36617
37748
39060
40496
42022
43584
45004
46052
46800
47200
47216
46840
46136
45114
43829
42416
40932
39504
38220
37102
36142
35392
34864
34489
34228
34020
33856
33738
33629
33526
33474
33422
33328
33159
32955
32760
32612
32516
32396
32301
32213
32131
32070
32016
31988
31922
31879
31846
31850
31840
31824
31810
31802
31786
31751
31751
31758
31739
31736
31738
31736
31734
31714
31694
31688
31681
31665
31628
31623
31606
31574
31568
31565
31568
31590
31593
31610
31620
31628
31642
31656
31683
31708
31742
31764
31770
31764
31724
31688
31656
31656
31664
31664
31695
31708
31740
31788
31833
31832
31849
31858
31870
31878
31892
31884
31867
31880
31912
31904
31892
31878
31864
31892
31896
31909
31890
31918
31940
31952
31960
31972
31986
31977
31998
31996
32030
32045
32068
32100
32098
32088
32080
32093
32116
32116
32130
32140
32168
32192
32221
32261
32262
32262
32286
32292
32300
32304
32312
32335
32338
32348
32357
32380
32391
32410
32422
32432
32459
32464
32480
32508
32518
32536
32553
32564
32592
32602
32614
32629
32634
32632
32652
32674
32698
32688
32697
32717
32732
32756
32796
32828
32854
32868
32882
32874
32864
32874
32888
32902
32911
32932
32950
32996
33044
33084
33128
33176
33224
33257
33268
33304
33336
33352
33380
33410
33418
33432
33436
33456
33460
33470
33476
33488
33482
33512
33556
33608
33652
33700
33746
33796
33828
33860
33892
33933
33970
34000
34046
34098
34148
34188
34214
34262
34288
34304
34320
34340
34368
34408
34448
34472
34485
34479
34480
34496
34536
34590
34610
34626
34632
34636
34660
34684
34701
34720
34732
34724
34733
34732
34744
34752
34732
34725
34716
34688
34652
34624
34592
34532
34468
34416
34352
34292
34210
34145
34064
34000
33949
33863
33776
33712
33644
33574
33490
33421
33348
33278
33208
33138
33066
32976
32884
32828
32757
32672
32606
32530
32460
32402
32326
32260
32192
32122
32070
32016
31972
31930
31879
31828
31762
31732
31696
31678
31652
31608
31580
31564
31536
31532
31556
31568
31599
31589
31580
31576
31556
31544
31548
31534
31504
31495
31464
31444
31432
31427
31430
31458
31464
31490
31488
31510
31510
31506
31522
31525
31518
31518
31512
31508
31500
31516
31518
31531
31524
31529
31545
31556
31579
31612
31650
31656
31659
31664
31684
31696
31698
31702
31716
31718
31710
31680
31666
31650
31652
31654
31638
31656
31656
31640
31648
31652
31656
31672
31704
31708
31720
31740
31754
31804
31808
31800
31792
31789
31792
31794
31816
31824
31838
31840
31853
31876
31890
31884
31876
31872
31868
31872
31881
31906
31928
31952
31932
31922
31916
31906
31902
31896
31888
31904
31910
31934
31958
31988
32008
32024
32050
32056
32084
32096
32090
32092
32101
32124
32130
32145
32134
32123
32116
32122
32134
32148
32165
32188
32210
32224
32222
32200
32196
32188
32186
32190
32217
32236
32248
32246
32239
32236
32236
32236
32244
32254
32256
32269
32288
32324
32337
32344
32376
32380
32360
32346
32316
32306
32312
32324
32336
32352
32372
32384
32414
32424
32418
32416
32430
32445
32448
32448
32424
32426
32433
32440
32444
32442
32452
32464
32464
32460
32456
32476
32493
32486
32496
32488
32484
32496
32496
32489
32476
32482
32504
32521
32519
32508
32515
32532
32550
32585
32600
32612
32612
32620
32626
32622
32628
32620
32632
32610
32610
32580
32546
32522
32512
32516
32536
32548
32556
32552
32583
32602
32608
32620
32624
32640
32640
32630
32636
32630
32620
32600
32577
32576
32566
32566
32558
32560
32568
32564
32586
32612
32628
32640
32656
32676
32688
32700
32706
32701
32670
32640
32620
32626
32613
32628
32617
32608
32620
32640
32665
32672
32668
32656
32665
32676
32681
32666
32634
32628
32616
32612
32620
32620
32621
32620
32628
32635
32624
32620
32630
32624
32624
32652
32656
32668
32684
32730
32741
32733
32708
32702
32706
32704
32704
32706
32706
32710
32702
32688
32704
32696
32698
32696
32710
32718
32704
32724
32722
32731
32714
32688
32676
32661
32647
32630
32632
32646
32648
32649
32642
32640
32647
32656
32658
32668
32672
32684
32690
32704
32706
32685
32666
32649
32650
32639
32630
32640
32632
32652
32660
32672
32678
32692
32712
32700
32706
32706
32700
32676
32658
32654
32634
32636
32612
32598
32600
32612
32616
32628
32640
32657
32664
32662
32648
32663
32664
32666
32674
32675
32684
32680
32680
32676
32672
32664
32658
32616
32624
32620
32609
32602
32583
32576
32585
32598
32612
32638
32658
32664
32663
32664
32676
32718
32750
32742
32708
32695
32691
32668
32644
32652
32676
32707
32728
32736
32764
32754
32752
32741
32704
32692
32690
32682
32683
32674
32650
32652
32660
32672
32678
32698
32712
32722
32724
32696
32685
32676
32688
32676
32676
32658
32642
32624
32622
32594
32568
32554
32538
32520
32534
32558
32592
32612
32622
32632
32640
32637
32608
32580
32556
32556
32532
32522
32544
32568
32622
32680
32752
32828
32892
32970
33047
33124
33180
33208
33223
33214
33208
33206
33200
33184
33172
33170
33178
33188
33216
33250
33293
33307
33304
33306
33328
33374
33383
33394
33398
33400
33396
33372
33352
33336
33328
33324
33309
33248
33182
33142
33085
33028
32999
32968
32964
32984
32972
32937
32898
32852
32820
32797
32756
32724
32712
32734
32724
32730
32735
32724
32740
32746
32736
32732
32736
32744
32751
32732
32696
32652
32624
32613
32600
32608
32612
32628
32638
32650
32646
32647
32666
32674
32649
32647
32648
32677
32690
32704
32711
32724
32742
32750
32756
32750
32754
32736
32714
32700
32709
32711
32698
32674
32678
32664
32674
32708
32720
32730
32733
32732
32738
32716
32683
32624
32544
32474
32388
32252
32120
31933
31704
31442
31156
30836
30492
30168
29876
29604
29432
29366
29398
29489
29642
29924
30322
30855
31452
32015
32606
33244
33856
34508
35298
36200
37240
38444
39836
41368
42940
44446
45692
46621
47248
47520
47381
46820
45956
44782
43400
41884
40344
38944
37728
36680
35792
35064
34540
34194
33982
33812
33678
33580
33464
33382
33344
33321
33253
33116
32936
32734
32600
32492
32414
32324
32216
32116
32046
31996
31956
31922
31896
31870
31854
31840
31816
31812
31802
31800
31800
31786
31772
31766
31770
31748
31734
31720
31714
31717
31720
31724
31716
31680
31644
31645
31626
31616
31588
31608
31622
31616
31600
31580
31597
31634
31677
31680
31708
31712
31711
31722
31751
31781
31785
31780
31794
31808
31832
31879
31893
31900
31912
31908
31896
31902
31896
31902
31917
31940
31966
31976
31989
32010
32016
32039
32048
32056
32042
32032
32056
32066
32078
32070
32080
32076
32084
32098
32132
32154
32181
32184
32221
32228
32244
32272
32292
32306
32340
32348
32332
32324
32348
32346
32352
32380
32396
32424
32468
32532
32586
32605
32616
32617
32608
32628
32632
32636
32656
32656
32684
32696
32708
32712
32720
32728
32746
32752
32784
32784
32796
32804
32820
32836
32842
32868
32888
32916
32942
32976
33004
33002
33021
33014
33012
33016
33024
33012
33042
33072
33104
33096
33098
33089
33080
33088
33108
33130
33166
33188
33223
33252
33266
33294
33312
33340
33394
33448
33488
33512
33554
33619
33652
33682
33708
33730
33740
33776
33832
33892
33948
33988
34038
34076
34140
34204
34236
34232
34252
34288
34320
34365
34386
34408
34439
34489
34512
34557
34595
34600
34627
34654
34688
34716
34748
34780
34804
34844
34912
34980
35018
35046
35054
35075
35092
35124
35116
35128
35128
35120
35130
35108
35085
35048
35034
35024
35020
35018
35001
34969
34944
34904
34840
34768
34714
34648
34585
34504
34420
34330
34242
34150
34062
33997
33908
33832
33788
33716
33628
33520
33414
33323
33209
33120
33036
32950
32860
32775
32708
32647
32554
32466
32382
32305
32244
32210
32149
32096
32028
31958
31896
31828
31780
31723
31672
31620
31588
31572
31546
31536
31532
31533
31522
31498
31488
31478
31472
31466
31450
31440
31432
31437
31420
31418
31400
31404
31388
31374
31356
31362
31374
31396
31418
31436
31442
31463
31452
31436
31436
31444
31462
31466
31480
31480
31484
31504
31494
31480
31456
31435
31440
31460
31480
31524
31558
31556
31560
31572
31564
31552
31542
31552
31570
31562
31584
31588
31578
31570
31588
31604
31602
31608
31610
31604
31600
31616
31631
31642
31652
31680
31674
31657
31679
31700
31717
31736
31740
31750
31744
31721
31694
31664
31650
31666
31674
31720
31740
31781
31820
31869
31908
31912
31917
31940
31954
31956
31950
31961
31957
31964
31956
31935
31936
31934
31938
31938
31944
31960
31964
31976
31996
32002
32028
32045
32058
32088
32108
32108
32112
32130
32120
32132
32156
32184
32192
32179
32173
32184
32188
32204
32212
32213
32226
32246
32260
32258
32261
32250
32263
32294
32284
32280
32274
32276
32292
32292
32306
32320
32338
32358
32358
32352
32370
32370
32358
32352
32354
32340
32324
32314
32332
32362
32384
32381
32378
32388
32384
32378
32378
32391
32384
32397
32416
32442
32448
32450
32440
32422
32420
32392
32397
32416
32444
32446
32452
32466
32480
32492
32512
32520
32524
32504
32484
32496
32496
32500
32520
32542
32545
32549
32533
32504
32512
32517
32548
32576
32600
32607
32602
32598
32596
32598
32596
32604
32616
32622
32612
32620
32610
32610
32614
32612
32622
32646
32640
32625
32622
32616
32630
32646
32660
32679
32678
32672
32665
32666
32652
32642
32632
32647
32644
32640
32642
32642
32646
32647
32652
32660
32674
32684
32675
32666
32670
32656
32636
32620
32601
32604
32605
32605
32592
32592
32613
32609
32600
32580
32584
32604
32616
32658
32681
32714
32708
32694
32696
32688
32685
32658
32628
32608
32619
32606
32605
32632
32664
32672
32690
32688
32698
32715
32722
32716
32708
32706
32728
32740
32736
32745
32752
32752
32746
32724
32722
32732
32744
32740
32764
32775
32778
32772
32756
32770
32772
32766
32768
32760
32742
32744
32740
32728
32728
32736
32744
32740
32734
32748
32749
32758
32768
32774
32775
32767
32760
32750
32752
32736
32704
32684
32680
32686
32688
32676
32676
32666
32688
32712
32738
32745
32760
32775
32775
32775
32768
32760
32744
32728
32754
32752
32720
32734
32742
32744
32746
32744
32732
32722
32718
32727
32742
32744
32761
32758
32733
32726
32714
32690
32682
32678
32680
32676
32672
32680
32691
32684
32682
32669
32678
32674
32656
32650
32652
32660
32702
32724
32748
32762
32764
32749
32733
32690
32679
32640
32617
32584
32548
32549
32528
32546
32576
32617
32660
32720
32799
32872
32944
33030
33104
33150
33182
33188
33219
33230
33254
33254
33254
33255
33268
33286
33287
33308
33325
33342
33340
33352
33376
33394
33422
33446
33472
33488
33486
33484
33484
33476
33466
33440
33416
33412
33388
33370
33322
33264
33190
33142
33086
33048
33016
32972
32940
32916
32900
32872
32868
32828
32812
32824
32824
32800
32808
32775
32740
32740
32724
32696
32692
32694
32696
32694
32666
32662
32647
32632
32605
32592
32602
32605
32616
32636
32636
32635
32637
32636
32636
32638
32632
32618
32612
32584
32588
32588
32594
32607
32614
32616
32637
32630
32644
32646
32664
32681
32684
32672
32668
32664
32668
32661
32668
32646
32628
32616
32608
32580
32568
32564
32542
32524
32485
32412
32285
32098
31862
31582
31264
30886
30520
30190
29899
29649
29424
29280
29224
29301
29482
29781
30224
30766
31362
31970
32556
33188
33836
34520
35222
36004
36908
37996
39252
40706
42272
43810
45195
46340
47248
47772
47840
47448
46704
45664
44336
42762
41108
39490
38080
36870
35878
35020
34324
33808
33469
33232
33068
32928
32826
32740
32676
32646
32638
32625
32560
32430
32312
32192
32084
32016
31956
31882
31814
31764
31751
31740
31720
31725
31736
31768
31772
31780
31788
31775
31760
31763
31751
31751
31736
31730
31712
31702
31696
31676
31648
31650
31658
31652
31632
31640
31650
31663
31670
31668
31676
31680
31684
31698
31718
31740
31756
31768
31766
31760
31780
31805
31848
31868
31898
31912
31932
31943
31932
31934
31936
31956
31973
32002
32002
32000
31996
32012
32044
32040
32046
32064
32076
32068
32096
32116
32132
32164
32192
32216
32232
32253
32276
32292
32326
32344
32356
32370
32388
32391
32378
32388
32388
32382
32402
32431
32472
32498
32542
32575
32608
32590
32594
32605
32622
32640
32656
32687
32690
32690
32692
32710
32708
32750
32758
32762
32762
32766
32780
32814
32846
32874
32886
32894
32932
32932
32932
32928
32944
32960
32985
33026
33040
33060
33054
33070
33066
33072
33060
33068
33090
33107
33152
33168
33196
33204
33238
33264
33285
33317
33328
33340
33334
33328
33349
33396
33428
33472
33525
33593
33652
33696
33732
33728
33740
33748
33748
33764
33782
33799
33796
33822
33836
33877
33904
33927
33952
34001
34050
34119
34164
34216
34272
34311
34341
34368
34402
34436
34482
34530
34572
34607
34616
34629
34648
34688
34712
34770
34802
34864
34914
34960
35000
35024
35056
35082
35112
35116
35132
35150
35164
35192
35214
35226
35240
35256
35270
35310
35330
35324
35326
35335
35329
35348
35356
35346
35324
35282
35222
35164
35090
35016
34962
34900
34830
34750
34674
34588
34506
34406
34306
34230
34116
34000
33894
33786
33696
33594
33488
33368
33253
33140
33022
32901
32808
32744
32680
32600
32512
32444
32368
32316
32237
32168
32110
32034
31970
31884
31818
31762
31696
31628
31588
31526
31490
31472
31460
31436
31429
31429
31422
31408
31390
31372
31367
31360
31332
31304
31284
31256
31266
31250
31234
31227
31192
31168
31165
31180
31188
31200
31205
31238
31262
31270
31264
31280
31292
31324
31336
31300
31280
31270
31278
31277
31282
31296
31314
31336
31370
31384
31380
31400
31418
31438
31428
31434
31436
31444
31428
31417
31408
31386
31381
31386
31384
31367
31350
31367
31376
31393
31412
31399
31373
31376
31366
31382
31388
31396
31402
31423
31431
31436
31438
31444
31444
31451
31450
31456
31470
31492
31492
31476
31480
31476
31490
31502
31538
31572
31568
31577
31596
31610
31622
31659
31680
31687
31680
31688
31698
31730
31736
31738
31732
31737
31750
31751
31788
31794
31804
31802
31798
31794
31804
31828
31844
31858
31876
31888
31890
31896
31908
31921
31940
31945
31972
31974
31982
31964
31968
31945
31940
31941
31936
31926
31914
31929
31960
31977
31992
32028
32052
32071
32084
32088
32084
32063
32044
32066
32096
32116
32132
32124
32110
32100
32100
32097
32102
32118
32134
32148
32172
32186
32214
32232
32228
32216
32216
32208
32200
32204
32228
32236
32248
32260
32256
32272
32280
32292
32304
32336
32361
32388
32404
32428
32456
32472
32456
32452
32449
32446
32460
32473
32476
32484
32492
32504
32514
32520
32536
32534
32518
32504
32502
32496
32508
32519
32512
32494
32488
32478
32469
32464
32488
32498
32528
32544
32548
32548
32552
32576
32585
32596
32612
32628
32608
32581
32548
32532
32509
32517
32532
32548
32570
32592
32606
32601
32601
32616
32612
32602
32612
32636
32652
32652
32648
32656
32664
32660
32670
32656
32658
32660
32686
32703
32720
32718
32712
32708
32711
32708
32712
32712
32716
32716
32728
32728
32736
32732
32737
32754
32760
32760
32750
32770
32744
32736
32745
32736
32740
32760
32788
32793
32792
32805
32808
32798
32807
32775
32772
32742
32720
32697
32717
32700
32684
32696
32684
32700
32720
32722
32724
32710
32695
32695
32701
32708
32711
32708
32692
32663
32652
32654
32668
32676
32696
32720
32717
32715
32712
32712
32722
32741
32728
32724
32722
32732
32748
32760
32764
32765
32750
32712
32710
32716
32736
32740
32744
32742
32763
32761
32748
32750
32748
32760
32765
32784
32808
32802
32800
32810
32817
32826
32828
32844
32848
32848
32824
32820
32805
32798
32775
32775
32765
32754
32756
32760
32757
32744
32727
32720
32740
32746
32751
32762
32768
32788
32810
32822
32846
32824
32816
32794
32792
32784
32784
32775
32788
32772
32775
32784
32800
32792
32802
32788
32781
32784
32768
32771
32756
32760
32775
32775
32764
32760
32756
32752
32744
32736
32746
32749
32738
32740
32727
32716
32708
32716
32716
32706
32702
32712
32714
32696
32696
32704
32702
32732
32736
32740
32756
32748
32730
32700
32658
32612
32582
32569
32568
32576
32614
32664
32722
32770
32836
32921
33007
33092
33184
33253
33299
33336
33360
33376
33398
33402
33412
33412
33388
33382
33373
33388
33410
33420
33420
33440
33452
33488
33504
33508
33504
33486
33492
33492
33478
33456
33466
33480
33468
33476
33498
33492
33473
33430
33376
33318
33248
33201
33164
33127
33092
33068
33048
32992
32925
32868
32816
32804
32780
32788
32782
32768
32764
32764
32775
32780
32784
32789
32798
32800
32788
32797
32775
32756
32736
32726
32734
32728
32719
32712
32708
32722
32720
32708
32706
32682
32672
32692
32696
32708
32704
32712
32712
32712
32720
32722
32712
32704
32700
32718
32700
32704
32708
32716
32728
32744
32750
32733
32710
32714
32708
32698
32700
32676
32638
32602
32582
32552
32536
32508
32458
32364
32248
32098
31878
31592
31314
30980
30652
30324
30002
29688
29448
29320
29306
29364
29504
29733
30080
30546
31138
31751
32354
32984
33600
34222
34964
35896
36932
38088
39440
40942
42520
44164
45652
46800
47623
48134
48228
47920
47216
46213
44914
43404
41824
40272
38854
37600
36532
35707
35112
34702
34428
34238
34093
33969
33848
33732
33646
33562
33442
33280
33068
32861
32692
32580
32470
32340
32232
32142
32081
32014
31976
31942
31904
31878
31846
31805
31776
31760
31740
31712
31684
31676
31657
31640
31618
31610
31600
31612
31608
31600
31580
31556
31554
31564
31574
31600
31612
31620
31634
31641
31623
31652
31664
31666
31654
31664
31680
31672
31674
31676
31668
31674
31672
31670
31684
31686
31685
31688
31692
31728
31748
31750
31768
31776
31784
31824
31834
31842
31836
31862
31880
31896
31926
31916
31908
31941
31972
31977
31968
31976
31984
31996
32002
32008
32027
32024
32028
32040
32024
32024
32040
32056
32078
32090
32132
32144
32144
32174
32178
32188
32200
32226
32254
32260
32260
32262
32244
32238
32252
32248
32256
32260
32252
32248
32244
32260
32280
32309
32336
32362
32402
32438
32448
32477
32492
32488
32480
32476
32496
32504
32512
32519
32528
32544
32546
32550
32564
32596
32614
32640
32647
32678
32683
32688
32702
32700
32705
32712
32736
32756
32791
32816
32840
32863
32878
32903
32900
32924
32936
32964
32984
33031
33074
33100
33128
33146
33160
33172
33192
33230
33254
33260
33296
33334
33369
33428
33458
33502
33524
33539
33584
33634
33676
33712
33748
33784
33808
33842
33871
33898
33918
33956
33996
34041
34098
34144
34183
34212
34240
34293
34348
34384
34404
34436
34462
34496
34530
34548
34572
34611
34632
34650
34676
34689
34694
34715
34732
34768
34793
34810
34823
34832
34850
34882
34896
34916
34916
34906
34894
34861
34823
34805
34768
34736
34704
34664
34618
34551
34468
34404
34312
34248
34177
34104
34040
33965
33882
33782
33694
33584
33484
33391
33287
33198
33094
33012
32962
32920
32866
32800
32736
32676
32600
32524
32434
32368
32308
32256
32189
32108
32025
31982
31940
31896
31868
31844
31826
31798
31772
31734
31700
31694
31655
31641
31604
31558
31541
31536
31508
31513
31504
31488
31484
31464
31432
31436
31444
31464
31460
31452
31478
31496
31496
31495
31500
31508
31502
31502
31530
31544
31548
31542
31538
31540
31560
31588
31618
31628
31628
31636
31612
31588
31576
31562
31560
31553
31560
31574
31590
31598
31608
31625
31632
31648
31662
31685
31696
31738
31800
31846
31846
31840
31834
31846
31844
31834
31835
31844
31840
31810
31784
31796
31800
31796
31796
31800
31802
31808
31826
31834
31840
31837
31830
31854
31890
31888
31906
31909
31920
31924
31914
31922
31940
31960
31968
31984
31988
32005
32028
32036
32040
32041
32050
32020
32008
32016
32030
32048
32068
32084
32095
32096
32084
32086
32078
32078
32086
32108
32129
32152
32173
32192
32216
32228
32220
32236
32256
32289
32302
32308
32302
32310
32322
32316
32306
32304
32288
32280
32256
32244
32240
32246
32252
32260
32276
32272
32280
32312
32312
32308
32306
32317
32324
32346
32376
32417
32422
32448
32441
32466
32480
32496
32508
32512
32540
32524
32506
32506
32498
32469
32448
32452
32456
32472
32509
32512
32514
32520
32521
32524
32520
32506
32504
32498
32494
32508
32488
32484
32516
32536
32544
32534
32526
32516
32512
32528
32516
32506
32509
32518
32530
32556
32560
32576
32604
32616
32638
32628
32620
32604
32600
32592
32609
32600
32606
32588
32557
32528
32521
32550
32568
32590
32604
32616
32628
32636
32632
32646
32658
32673
32652
32620
32612
32584
32572
32584
32590
32580
32560
32568
32584
32566
32576
32596
32605
32608
32600
32596
32600
32592
32589
32584
32605
32606
32628
32628
32644
32656
32672
32688
32713
32724
32748
32731
32714
32696
32684
32669
32684
32678
32688
32671
32656
32638
32646
32648
32670
32680
32685
32688
32714
32728
32720
32710
32692
32680
32664
32625
32564
32554
32550
32556
32552
32540
32544
32560
32576
32578
32600
32620
32642
32636
32644
32652
32660
32647
32647
32640
32648
32658
32644
32662
32670
32662
32669
32665
32660
32670
32676
32664
32660
32662
32669
32666
32688
32700
32700
32700
32712
32682
32680
32656
32640
32642
32652
32644
32642
32636
32660
32676
32676
32680
32692
32702
32712
32718
32732
32734
32734
32713
32724
32716
32694
32712
32736
32750
32768
32771
32782
32792
32796
32816
32838
32832
32826
32808
32772
32751
32734
32708
32688
32672
32660
32647
32656
32677
32704
32732
32742
32726
32712
32708
32698
32688
32690
32692
32701
32700
32706
32708
32710
32692
32696
32692
32685
32680
32676
32672
32685
32688
32704
32700
32708
32712
32712
32706
32684
32668
32642
32640
32652
32662
32660
32662
32665
32680
32711
32726
32756
32775
32792
32824
32838
32856
32856
32856
32862
32836
32820
32808
32806
32804
32790
32770
32758
32756
32762
32774
32760
32752
32737
32750
32736
32728
32732
32740
32756
32775
32794
32797
32786
32772
32764
32748
32737
32740
32728
32690
32686
32690
32694
32698
32716
32740
32759
32762
32748
32732
32722
32711
32692
32672
32647
32640
32637
32647
32642
32672
32720
32804
32908
33016
33114
33204
33287
33328
33356
33400
33394
33376
33376
33362
33360
33352
33338
33351
33346
33348
33368
33386
33398
33423
33428
33458
33456
33452
33438
33456
33476
33492
33492
33496
33520
33543
33550
33509
33464
33408
33372
33316
33264
33216
33152
33118
33104
33072
33052
33029
32996
32965
32938
32924
32916
32908
32900
32872
32848
32844
32840
32832
32829
32844
32848
32856
32848
32816
32790
32786
32775
32754
32748
32715
32712
32720
32706
32716
32720
32709
32716
32712
32706
32710
32708
32708
32716
32724
32726
32720
32706
32716
32712
32676
32680
32684
32690
32708
32716
32720
32740
32733
32730
32734
32738
32730
32706
32724
32720
32724
32715
32666
32626
32626
32613
32588
32524
32474
32432
32356
32244
32072
31848
31604
31320
31008
30658
30308
29984
29684
29485
29403
29396
29471
29597
29781
30129
30602
31193
31802
32374
32992
33594
34212
34951
35888
36910
38080
39396
40848
42366
43908
45306
46320
47044
47424
47414
46990
46244
45190
43916
42472
41012
39578
38268
37098
36110
35359
34823
34443
34200
34034
33916
33796
33676
33566
33487
33404
33270
33090
32886
32678
32526
32440
32332
32252
32180
32106
32048
32009
31992
31932
31894
31866
31830
31806
31788
31778
31792
31798
31798
31798
31772
31738
31710
31676
31654
31620
31596
31604
31634
31634
31620
31600
31602
31622
31616
31618
31622
31618
31632
31630
31632
31632
31639
31644
31670
31680
31670
31660
31672
31674
31688
31696
31688
31699
31702
31708
31744
31740
31751
31784
31809
31808
31808
31810
31814
31832
31856
31872
31893
31912
31940
31930
31924
31934
31936
31952
31960
31970
31968
31972
31994
32012
32032
32038
32053
32071
32097
32114
32116
32108
32096
32093
32086
32068
32082
32090
32088
32101
32116
32116
32128
32151
32164
32192
32198
32202
32202
32194
32196
32222
32233
32236
32240
32228
32220
32239
32246
32263
32306
32334
32360
32404
32409
32416
32409
32392
32398
32402
32404
32420
32432
32450
32452
32476
32484
32476
32484
32497
32512
32528
32560
32622
32640
32662
32672
32666
32682
32692
32668
32684
32677
32680
32688
32701
32737
32756
32788
32813
32834
32852
32868
32884
32892
32903
32942
32968
32994
33033
33063
33082
33106
33132
33176
33218
33253
33293
33336
33372
33448
33492
33552
33620
33664
33705
33728
33765
33786
33832
33884
33916
33949
33988
34004
34030
34042
34057
34080
34128
34168
34230
34279
34333
34376
34439
34476
34508
34530
34564
34586
34600
34616
34616
34604
34624
34650
34679
34702
34722
34728
34728
34748
34744
34744
34734
34750
34730
34694
34660
34612
34565
34536
34484
34439
34382
34330
34270
34244
34184
34128
34058
33996
33924
33881
33824
33740
33642
33576
33516
33444
33372
33286
33204
33138
33065
32980
32902
32822
32752
32680
32620
32570
32498
32436
32364
32322
32268
32216
32176
32134
32092
32052
32015
31972
31920
31874
31838
31796
31758
31728
31716
31711
31724
31724
31730
31734
31715
31696
31688
31688
31660
31640
31592
31594
31598
31618
31615
31616
31606
31576
31568
31558
31556
31570
31561
31592
31612
31613
31624
31628
31624
31616
31626
31624
31604
31606
31612
31625
31666
31677
31684
31708
31730
31741
31751
31745
31738
31740
31764
31780
31796
31811
31800
31808
31808
31828
31821
31836
31840
31850
31856
31860
31884
31926
31944
31964
31974
31964
31952
31948
31966
31992
31998
31996
31972
31968
31960
31960
31948
31972
31968
31976
31992
32010
32026
32030
32050
32048
32061
32078
32056
32063
32036
32046
32056
32055
32068
32082
32091
32101
32116
32144
32180
32212
32216
32232
32220
32200
32184
32178
32198
32204
32196
32168
32156
32146
32140
32157
32178
32204
32220
32230
32244
32236
32251
32263
32272
32303
32304
32320
32339
32344
32332
32352
32378
32378
32386
32382
32376
32393
32400
32404
32406
32420
32424
32428
32450
32452
32473
32484
32475
32480
32500
32508
32504
32511
32514
32488
32484
32500
32528
32540
32549
32552
32570
32564
32566
32556
32560
32565
32592
32588
32587
32588
32588
32600
32620
32618
32608
32596
32587
32612
32636
32657
32692
32710
32716
32708
32702
32690
32685
32680
32688
32689
32690
32692
32688
32710
32704
32690
32696
32674
32668
32668
32672
32680
32700
32700
32730
32720
32696
32685
32684
32672
32685
32715
32728
32744
32770
32775
32775
32780
32794
32792
32796
32809
32804
32784
32760
32744
32748
32740
32748
32716
32704
32688
32684
32676
32674
32674
32680
32670
32668
32662
32676
32668
32668
32642
32640
32620
32612
32621
32600
32598
32601
32628
32628
32642
32655
32668
32677
32668
32652
32640
32634
32620
32621
32642
32646
32622
32600
32584
32564
32560
32568
32564
32544
32540
32552
32554
32558
32574
32560
32543
32520
32504
32508
32500
32489
32460
32452
32452
32458
32450
32448
32452
32452
32448
32458
32460
32479
32493
32522
32546
32550
32532
32527
32526
32518
32513
32506
32512
32494
32496
32492
32480
32516
32518
32524
32512
32502
32498
32492
32514
32532
32532
32532
32546
32545
32516
32502
32516
32524
32548
32528
32517
32530
32532
32530
32528
32519
32528
32532
32544
32536
32549
32556
32570
32576
32596
32620
32626
32632
32620
32610
32608
32598
32592
32600
32608
32613
32622
32616
32628
32608
32609
32580
32576
32562
32570
32556
32541
32548
32524
32516
32516
32532
32552
32576
32597
32616
32630
32633
32622
32626
32630
32612
32600
32600
32596
32594
32572
32562
32553
32548
32546
32548
32542
32536
32516
32546
32575
32560
32572
32578
32550
32534
32544
32572
32608
32632
32650
32656
32648
32647
32624
32588
32597
32591
32571
32548
32548
32560
32568
32580
32580
32617
32647
32628
32626
32610
32598
32596
32604
32602
32597
32590
32584
32582
32590
32602
32584
32596
32600
32616
32620
32586
32582
32580
32582
32580
32585
32574
32549
32556
32568
32545
32532
32529
32516
32517
32528
32580
32600
32604
32596
32603
32612
32612
32613
32592
32576
32560
32517
32484
32444
32420
32421
32425
32438
32482
32544
32624
32712
32812
32903
33012
33077
33118
33120
33112
33112
33108
33111
33112
33101
33104
33120
33160
33200
33244
33245
33253
33272
33274
33276
33286
33296
33300
33304
33330
33358
33368
33350
33341
33332
33330
33312
33282
33254
33186
33115
33076
33044
33015
32976
32944
32904
32865
32826
32802
32760
32710
32657
32620
32610
32622
32616
32620
32605
32594
32599
32616
32650
32640
32636
32646
32662
32702
32711
32724
32700
32696
32679
32665
32647
32639
32621
32624
32626
32614
32600
32600
32610
32626
32632
32650
32664
32677
32656
32652
32610
32572
32548
32546
32550
32553
32560
32570
32581
32591
32600
32608
32596
32596
32585
32568
32564
32572
32568
32544
32525
32500
32476
32458
32430
32391
32391
32354
32292
32216
32068
31884
31647
31348
31028
30666
30320
30004
29720
29444
29276
29178
29189
29298
29487
29790
30194
30732
31342
31936
32530
33128
33756
34428
35224
36148
37181
38384
39784
41302
42862
44392
45640
46592
47272
47548
47392
46836
45978
44812
43402
41868
40332
38919
37728
36672
35734
34988
34448
34096
33840
33650
33516
33396
33268
33159
33093
33034
32942
32804
32612
32448
32364
32278
32168
32088
32028
31984
31945
31908
31840
31789
31753
31738
31720
31700
31706
31714
31734
31735
31740
31740
31734
31746
31745
31722
31690
31658
31646
31642
31640
31632
31620
31618
31600
31612
31624
31622
31616
31602
31576
31580
31600
31604
31628
31660
31687
31714
31751
31750
31737
31720
31724
31732
31751
31786
31801
31816
31828
31804
31815
31826
31840
31860
31872
31900
31908
31927
31949
31964
31982
31992
31997
31986
31972
31968
31968
31988
32000
32034
32040
32066
32080
32114
32131
32122
32106
32088
32092
32112
32134
32162
32177
32194
32202
32213
32236
32262
32290
32300
32344
32382
32396
32413
32428
32439
32450
32464
32458
32457
32468
32472
32468
32468
32452
32460
32480
32476
32480
32478
32505
32548
32564
32589
32612
32622
32620
32628
32613
32636
32646
32662
32668
32676
32676
32676
32680
32692
32696
32698
32726
32764
32798
32833
32861
32898
32904
32904
32908
32930
32958
32984
33000
32996
33000
33006
33030
33056
33084
33092
33112
33158
33188
33200
33245
33306
33336
33378
33426
33469
33501
33530
33564
33584
33584
33602
33634
33652
33680
33714
33776
33856
33928
33984
34035
34096
34177
34232
34278
34311
34360
34402
34444
34440
34456
34474
34510
34560
34599
34624
34652
34690
34734
34754
34779
34800
34812
34844
34860
34900
34918
34964
34978
35002
35026
35052
35072
35098
35106
35116
35136
35160
35168
35168
35173
35152
35143
35122
35084
35042
35015
34966
34904
34860
34796
34738
34680
34593
34492
34392
34302
34224
34128
34041
33954
33860
33764
33692
33613
33510
33423
33324
33236
33146
33053
32967
32866
