32718
32784
32880
32868
32846
32792
32714
32774
32841
32816
32892
32880
32904
32888
32805
32770
32864
32864
32672
32680
32768
32720
32818
32836
32903
32987
32968
32632
32646
32885
32866
32716
32716
32884
32816
32735
32732
32682
32740
32766
32816
32850
32816
32736
32768
32826
32824
32840
33162
32689
32468
32576
32644
32784
32754
32700
32746
32744
32878
32896
32506
32626
32746
32808
32808
32774
32988
32904
32752
32784
32864
32923
32916
32850
32784
32744
32775
32845
32825
32824
32846
32880
32856
32864
32836
32832
32834
32916
32897
32892
32812
32869
32850
33105
33120
32445
32594
32738
32828
32844
32889
32824
32696
32804
33586
32640
32340
32694
32762
32916
32908
32866
32798
32856
32868
33221
33272
32676
31988
32650
32829
32848
32890
32775
32532
32872
32971
32962
32884
32644
32712
32920
32902
33040
32864
32528
32677
32794
32894
32915
32764
32833
32775
32792
32775
32824
32775
32808
32788
32775
32800
32872
33012
32754
32746
32800
32912
32838
32696
32860
32876
32758
32614
32926
32856
32775
32588
32690
32885
32920
32770
32552
32755
32856
32844
32846
32820
32888
33066
32733
32996
32940
32578
32712
32740
32706
32763
32816
32840
32804
32812
32852
32829
32846
32828
32837
32912
32676
32746
32824
32864
32790
32994
33096
32937
32520
32500
32862
32676
32620
32824
32868
32752
32800
32856
32905
32752
32770
32808
32856
32824
32838
32843
32824
32829
32759
32752
32741
32752
32768
32818
32839
32826
32816
32868
32836
32832
32824
32796
32768
32738
32792
32860
32792
33082
32768
32802
33060
32980
32328
32642
32832
32736
32772
32732
32808
32829
32838
32792
32756
32774
32810
32843
32796
32730
32740
32812
32840
32804
32813
32848
32837
32792
32812
32844
32867
32958
32672
32811
32704
32864
32890
32858
32908
33033
32362
32388
32744
32896
33124
32980
32477
32841
32866
32860
32804
32775
32756
32839
32967
32905
32656
32702
32685
32772
32833
32836
32816
32918
32880
32730
32706
32872
32772
32869
32768
32610
32722
33032
32956
32923
32520
32504
32688
32674
32788
32834
32846
32894
32914
32841
32916
32844
32808
32784
32852
32826
32800
32893
32841
32750
32840
32792
32775
32852
32860
32832
32850
32824
32906
32826
32754
32897
32900
32793
32660
32656
32730
32738
32928
32880
32872
32808
32755
32870
32848
32748
32756
32832
32704
32710
32774
32796
32836
32858
32761
32832
32730
32878
33353
32840
32768
32404
32816
32695
32748
32752
32894
32930
32892
32756
32642
32732
32897
32888
32906
32680
32732
32841
32878
32772
32768
32772
32864
32748
32696
32850
32800
32720
32903
32919
32857
32744
32654
32872
33546
32775
32176
32732
32922
32568
32624
32762
32848
32848
32820
32842
32873
32817
32876
32962
32792
32792
32876
32773
32672
32640
32768
32726
32902
32929
32952
32972
32760
32610
32744
32644
32794
32900
32775
32792
32887
32877
32985
32572
32756
32712
32674
32764
32938
32872
32833
32688
32736
32792
32809
32829
32824
32946
33112
32532
32688
32885
32774
32775
32780
32813
32885
33030
32692
32688
32784
32825
32733
32808
32829
32846
32774
32730
32928
32904
32844
32775
32972
33008
32768
32680
32688
32752
32762
32736
32837
32842
32772
32733
32808
32808
32820
32834
32744
32734
32833
33060
32916
32868
32844
32729
32729
32797
32860
32792
32800
32752
32738
32770
32715
32861
32842
32936
33200
32725
32516
32592
32804
33246
32930
32419
32544
32890
32940
32738
32556
32706
32797
32818
32710
32890
32896
32882
32840
32836
33006
32712
32772
32850
33097
32622
32621
32674
32853
32704
32838
32856
32817
32902
32838
32804
32796
32810
32804
32916
32764
32861
32864
32604
32930
32784
32710
32694
32776
32832
32844
33032
32773
32801
32884
32841
32626
32648
32768
32848
32889
32853
32793
32786
32775
32844
32784
32755
32988
32832
32760
32688
32784
32808
32736
32804
32888
32774
32774
32934
32912
32706
32732
32746
32756
32840
32768
32776
32844
32678
32888
32784
32833
32858
32728
32832
32864
32752
32784
32836
32773
32824
32968
32704
32706
32835
32824
32721
33068
33410
32584
32272
32786
32964
32586
33024
32434
32554
32808
32880
32839
32870
33039
32704
32760
32804
32819
32920
32856
32947
33057
32808
32726
32603
32562
32616
32944
33049
32971
32968
32592
32768
32739
32774
32802
32930
32768
32774
32792
32766
32775
32856
32916
32834
32714
32840
32872
32854
32876
32848
32774
32862
32874
32850
32668
32868
32854
32927
32845
32635
32441
32472
32740
32848
32808
32900
32900
32802
32924
32888
32744
32808
32873
32921
32788
32816
32788
32788
32756
32827
32880
32816
32796
32758
32784
32680
32890
32960
32850
32704
32666
33180
32542
32698
32775
32794
32812
32712
32792
32792
32872
32896
32808
32684
32952
32948
32952
33132
32440
32600
32784
32892
32885
32784
32744
32654
32763
32864
33144
32583
32672
32804
32922
32812
32700
32808
32775
32828
32800
32952
33044
32634
32840
32832
32993
32887
32492
32588
32672
32792
32826
32952
32972
32810
32736
32768
32844
32790
32700
32636
32864
32850
32908
32740
33002
32870
32746
32764
32676
32824
32821
32856
32819
32816
32790
32844
32848
32768
32768
32894
32816
32788
32839
32745
32706
32864
32890
32775
32824
32808
32903
32944
32658
32684
32752
32720
32724
32792
32816
32846
32828
32668
32793
32684
32860
32913
32846
32750
32688
32904
32944
32836
32728
32804
32798
32816
32947
32776
32708
32784
32976
32885
32744
32845
32816
32948
33144
32962
32346
32306
32624
33016
32956
32775
32872
32428
32560
32790
32904
32948
32892
32760
32892
32939
32865
32796
32760
32774
32808
32888
32768
32739
32724
32712
32872
33060
33155
32444
32660
32944
32436
32642
32817
32958
32776
33160
33400
33545
33472
33368
33098
33000
32732
32178
31362
31096
31200
31914
32775
33114
33168
33124
33152
33200
33148
32984
32676
32896
32898
32896
32866
33034
32956
32912
32835
32833
32840
32962
33016
33060
32957
32912
32996
33074
32912
32684
32556
32696
32834
33098
32754
32500
32408
32302
32448
32711
32440
32410
32736
32878
32948
32880
32932
32736
32868
33000
33162
33252
33509
33618
32924
32920
32472
32633
33080
33489
33092
32664
33120
33586
33523
32263
30640
30668
32108
32400
32592
32488
32454
32712
33106
32452
32004
32620
32880
33756
34128
33796
33328
33223
33176
32440
32152
31986
32169
32528
33002
33287
33284
32634
32568
32740
32728
32946
33066
32998
33032
33056
32954
32944
32890
32784
32804
32880
32856
32932
32800
32929
32939
32756
32802
33084
32672
32514
32821
32694
32784
32760
32700
32762
32785
32772
32792
32723
32696
32826
32772
32804
32741
32792
32792
32612
33016
32868
32892
32894
32916
32827
32638
32638
32616
32792
32736
32732
32969
32816
32880
32720
32796
32932
32702
32716
32794
32784
32748
32889
32840
32730
33002
33120
33148
33070
32924
32910
32904
32742
32610
32364
32314
33164
33544
33078
32832
32796
32048
31510
31751
32206
33006
33234
33380
33233
32706
32281
32485
33064
33272
33188
33146
32898
32952
32960
32640
32210
32492
32932
33048
32960
32870
32896
32846
32786
32656
32684
32811
32902
33128
32848
32635
32775
32864
32869
32841
32572
32668
32857
32740
32885
32908
32788
32716
32760
32976
32764
32738
32712
32672
32796
32864
33052
32802
33092
33112
32921
32816
32864
32678
32468
32674
32864
32838
32870
32768
32952
32708
32644
32739
32754
32706
32744
32592
32608
32914
32843
32792
32688
32800
32904
32989
32988
33060
33180
33030
32800
32278
32369
32513
32644
32850
32892
32780
32844
32942
32960
32813
32896
33152
33192
33140
33064
32866
32775
32456
32473
32304
32072
32450
33026
32868
32682
32985
32972
32864
32504
32704
33084
32950
32844
32988
33082
32920
32994
33360
33082
33008
33193
33074
33024
32908
32477
32360
32450
31864
30841
31744
32775
32996
32816
33100
33220
33051
32968
32985
33148
33064
32948
32792
33170
33152
33064
32862
32774
32964
33065
32964
32848
32114
32588
32808
32988
32838
32600
32216
32232
32650
32744
32792
32952
32882
33072
33250
33110
32996
33154
33005
32890
32684
32796
33078
33490
33254
32336
32012
31965
32528
32084
32408
32651
32120
32112
32586
32775
33124
33776
33799
33172
33408
33376
32600
32082
32866
33042
32865
32739
32768
32838
32740
32712
32903
33114
32834
32934
32894
32892
32800
32752
32784
32937
33334
33432
32860
32232
32328
32400
32538
32252
32021
32092
32590
32580
32624
32800
33274
33152
33124
33332
33380
33024
32736
32612
32500
32617
33744
33924
33928
33636
33272
33162
32632
32681
31956
30680
30360
31793
32790
32720
32952
33013
33112
33050
33268
33038
32698
32876
33028
33516
34122
33890
32562
32698
32846
32944
33024
33192
33092
32344
31904
31976
32031
32730
32796
31988
32282
32600
32752
33211
32864
32868
33112
32921
32828
33174
33162
32400
33064
33188
32726
32885
33088
32720
32582
33140
32841
33122
33192
32532
32604
32794
32773
33027
33028
32872
33456
33430
33093
32558
32135
32096
31449
31780
32626
33166
32498
32874
32808
32332
32872
33600
33600
33132
32774
32700
32988
33480
32402
31944
32564
32329
32968
33178
33128
32508
32272
32552
33098
33450
32892
32992
32740
32392
32498
32482
32780
33120
33240
32928
32746
32898
32925
33284
33664
33590
33060
32348
31958
32399
32458
32468
32564
32873
32764
32612
33068
32930
33096
32866
32686
32684
32880
32948
32828
32912
33128
32904
32962
33331
32892
33472
34612
34232
32966
33338
33923
33032
30280
28828
29393
30876
31427
31840
33284
33256
34246
34290
34072
34802
34592
33872
33384
33602
33436
33245
31546
29213
30701
31994
32234
32386
32206
32648
32240
32894
33544
33568
33118
32752
32714
32931
33616
33714
33668
33508
33122
33156
33200
32788
32596
33108
32496
32212
32829
32308
32615
33452
33440
33044
32706
32000
31414
32310
33104
33120
33287
33512
33364
33052
31751
31952
32966
33000
33868
33796
33732
33566
33676
32652
31056
29661
30744
32836
33788
33475
33656
34192
33636
32528
30906
31648
32148
30922
32020
33636
33837
33832
33372
33118
33252
32788
33480
33796
34144
33904
32947
32884
32738
32013
31528
31751
30410
30628
32361
33506
33501
33580
33949
32680
31880
32336
32748
33512
32908
31945
32696
32796
32006
32262
33660
34782
34912
34273
33672
33024
33268
31580
31291
31764
32697
33320
32331
32224
31340
31456
32176
32424
33182
33394
33400
33336
33240
33397
33808
34026
32500
32330
32368
32464
33728
33826
33453
34024
33904
33912
33634
34226
34450
32844
30737
27570
28933
30168
30964
32010
32696
32840
33368
32432
32812
33196
33234
33544
34208
34330
34682
34964
37488
38840
38280
36935
33020
29362
27112
21376
21536
27804
31568
34120
35419
36346
35584
33865
34728
33248
29928
30688
32916
33956
34360
34594
34118
33924
34060
33738
32320
31052
31480
31668
32834
32646
32660
33626
33540
33845
32378
32122
32114
33216
33786
32694
32432
33384
33024
32710
32562
33376
33728
33840
33661
34362
34472
33116
32208
33001
34360
33024
32416
31360
30146
30672
30544
29538
29604
29988
31242
32775
34656
35233
35392
36368
36280
36640
36157
35470
35000
34688
35190
33432
30800
26504
24710
26156
28364
29204
30428
33136
32418
34948
35136
33610
33701
34116
33232
30894
31230
32808
34452
35765
35120
34360
34357
34784
32969
32625
31538
31962
32996
32632
32263
32904
33501
32972
32592
33048
33061
33044
33083
33068
33193
33040
32473
32656
33570
33329
32568
33122
32040
33028
33100
33018
33064
33420
34100
33908
33162
30546
32002
32040
33413
33444
31634
30522
30066
28829
28828
32188
33922
35640
36831
36468
35166
35248
33852
32456
32666
32484
32504
30856
30081
29024
29912
30880
31362
32956
32497
31776
33096
33772
34064
34160
33956
33902
33652
33424
32492
33600
34914
33920
33512
33673
33962
33501
35296
34112
32480
31194
31050
28792
28440
29688
33244
34280
33872
34744
34299
32680
32568
33728
33240
34386
34234
34528
34704
31724
32732
32242
31308
31965
30144
31166
32037
31018
32846
32042
31668
33370
34156
33344
34416
34848
34490
33052
32148
34052
34888
33144
31448
33176
35688
37024
35609
31044
27542
28144
24328
20728
27664
34360
37468
37032
36266
35598
32336
29724
32648
34722
35370
34088
34064
33988
33456
34600
35034
35180
36154
36385
35346
31944
30288
29106
26349
25163
27312
31553
34912
35644
34044
32889
33768
34544
34288
33508
33252
33297
33360
33200
33792
34922
33850
33536
34496
33690
31779
31464
31781
30804
31876
31168
30398
29840
31522
33984
33812
33608
34364
34372
34020
33504
31332
31472
32736
32996
33077
31940
32236
33241
33884
32936
34311
34392
35970
37985
39192
38494
36304
35360
29460
23284
19976
18821
25608
31402
34492
35840
34024
33804
34676
36122
34472
31572
29900
31440
33865
33674
34840
35664
37046
36640
38004
36554
34235
30564
23960
27944
33084
32642
34104
33508
32812
30456
29688
32816
35808
35710
33422
32840
30792
30188
32500
32022
32452
33181
33148
33878
33320
33124
33816
33687
33958
33701
33110
32612
32247
33372
33970
36516
35026
34336
31960
31028
30770
29804
30172
31452
31802
30608
30727
34132
35081
33776
34044
33658
34393
36084
36121
37748
35486
33784
30342
24833
25395
26740
26076
29373
32730
34664
35048
35232
36208
36432
34280
33592
33176
28958
28730
32464
34217
33410
32991
33360
35200
35576
35160
35328
33922
34008
34344
34002
32826
30932
30082
30940
30852
31749
33058
32608
30052
31188
33096
33351
33680
35104
34043
31964
32466
33785
34368
33034
32736
34823
37596
36138
34823
34282
32824
27654
26736
28396
26816
27394
30764
35730
37136
38280
36444
31496
27588
28784
31180
32740
34504
36290
36423
34761
34648
35805
33705
30824
31312
31024
28884
28266
31952
34540
36104
36706
35846
33260
35424
36762
33404
30436
32392
30594
24922
22260
27604
30812
34430
34140
34660
34974
35250
34840
34716
34468
34324
34624
35568
35552
33528
32304
30920
30108
30057
31933
34272
33086
32420
32562
32740
34140
34554
35488
33864
33729
31824
31246
33570
32240
30168
32065
32836
32600
31700
33037
32306
33156
32456
31964
32594
33232
33497
34946
37000
37972
37930
37120
32476
26162
20796
25041
29904
30378
30548
31794
31395
32553
33149
34864
35964
37298
37938
36240
34976
33068
31238
30726
30608
32332
33642
34036
33052
32640
31888
32141
32784
33124
33228
34030
33926
33479
33492
32616
31624
33020
33204
31954
32904
32324
33931
34376
32404
31795
32135
32150
31249
31552
32248
32505
33136
33474
33184
33578
33640
33358
32990
32516
32458
32584
32484
32696
32566
32764
32178
33053
33894
33504
32868
32646
32692
33115
34211
35416
35864
35192
33072
32020
31588
30080
26680
24908
29241
33856
35476
35496
34652
33203
32530
30308
30720
31608
33275
34666
35132
34156
33188
32895
33106
34328
33966
34004
33628
33403
32628
32219
32109
32538
32128
33052
33456
32859
32418
32308
32612
32612
32527
32708
32920
33028
32536
32480
32944
32837
32834
33299
33736
33236
32416
31104
32722
32723
32486
32566
32775
33088
33070
32908
32760
32860
33218
32988
33020
32712
32910
32986
33130
32489
31584
32036
32320
32560
33088
33092
33285
33370
32839
32616
32652
32825
32906
33088
33110
32816
32728
32668
32704
33112
33170
32760
32716
32704
32864
32596
32569
33140
32838
32686
32930
33128
32904
32384
32760
32390
32774
32893
32576
32878
32976
33058
33346
33016
32793
32390
32540
32829
32808
32817
32828
33128
33776
32230
31968
32736
33074
33140
33282
33523
33154
31928
31146
31717
32094
32236
32652
32796
32928
33093
33148
33064
33072
33182
33170
33088
33074
33066
33064
32856
32912
33053
33038
33018
33144
32898
32811
32647
32882
33812
33648
33645
33196
32258
30884
30394
30476
31768
32640
33034
33200
33312
33160
33068
33042
33122
33202
33144
32892
32980
33112
33016
32944
32976
33100
32922
32618
32812
33136
32842
32391
32760
32870
32858
32814
32756
32644
32676
32780
32816
32895
32818
32944
33096
32568
32677
32940
32888
32820
32754
32956
32618
33040
32744
32730
32810
32606
32896
32520
32608
32754
32932
32868
32646
32618
32740
32850
32960
32812
32760
32790
32853
32850
32864
32844
32832
32861
32864
32824
32792
32752
32932
33049
32840
32622
32775
32496
32608
32861
32880
32984
32788
32796
32740
32701
32720
32749
32816
33056
32980
33002
32880
32784
32850
32622
32368
32504
32692
32724
32744
32829
32801
32760
32819
32989
32920
32891
32856
32848
33057
33147
32996
32608
32647
32702
32784
32884
32642
32760
32876
32774
32868
32784
32682
32752
32820
32852
33008
33084
32968
32876
32818
32754
32596
32632
32723
32672
32828
32644
32616
32568
32648
32810
32880
32942
32990
33080
33040
33120
32888
32756
32789
32832
32838
32656
32749
32722
32538
32760
32788
32744
32827
32760
32710
32784
33042
32832
32738
32938
33010
32674
32558
32432
32636
32844
32902
33071
32918
32688
32670
32944
32972
32796
32784
32910
32604
32750
32944
32544
32901
32854
32981
32952
32340
32486
32674
32896
32816
32996
32621
32940
32835
32404
32632
32857
32946
32924
32770
32996
32740
33010
32744
33140
33130
32744
32768
32714
32744
33052
32850
32816
32936
32841
32564
32605
32896
32844
32696
32580
32672
32796
32808
32692
32722
32605
32640
32996
32968
32927
32864
33080
33220
33082
32932
32760
32600
32692
32738
32945
33056
32770
32584
32836
32893
32652
32812
32690
32644
32768
32858
32861
32626
32652
32768
32780
32760
32748
32760
32788
32824
32964
32756
32707
32728
32796
32802
32774
32743
32752
32818
33001
33200
33156
33106
32896
32834
32720
32680
32785
32775
32722
32659
32672
32809
32762
32793
32808
32809
32809
32803
32800
32892
32804
32722
32720
32772
32802
32712
32768
32708
32602
32587
32774
32780
32912
33035
33156
33232
33068
33068
33049
32786
32751
32781
32802
32680
32636
32640
32554
32576
32642
32696
32672
32878
32898
33114
33265
33027
32904
32658
32692
32724
32714
32736
32843
33158
32626
32374
32704
32880
32891
32888
32816
32722
32672
32728
32800
32760
32750
32775
32848
32788
32836
32848
32852
32850
32814
32808
32804
32789
32840
32740
32788
32734
32784
32756
32768
33072
32952
32662
32364
32584
32804
32912
32888
32768
32856
33096
33078
32988
32834
33027
32688
32592
32672
32730
32792
32715
32712
32756
33146
32718
32677
32832
32736
32784
32828
33000
32824
32596
32844
32828
32754
32642
32826
32992
32927
32848
32782
32748
32812
32896
32728
32866
32891
32716
32738
32750
32876
32908
32864
32808
32786
32762
32816
32800
32784
32992
32656
32680
32768
33004
32944
32736
32668
32786
32730
32992
32630
32648
32792
32772
32770
32880
32928
32792
32763
32768
32882
32918
32918
32734
32740
32774
32912
32768
32817
32926
33241
32512
32640
32712
32711
32752
32800
32792
32798
32926
33256
32868
32516
32608
32932
32664
32738
32896
32953
32852
32706
32704
32908
32872
32880
32838
32706
32744
32800
32774
32800
32923
32834
32680
32714
32936
32906
32837
32832
32728
32745
32804
32868
32832
32784
32801
32892
32880
32840
32786
32792
32775
32944
32866
32714
32644
32786
32785
32752
32916
32856
32788
32730
32701
32786
32842
32834
32856
32800
32808
32804
32820
32796
32816
32818
32802
32816
32852
32816
32744
32800
32808
32884
32814
32775
32768
32808
32896
32845
32647
32788
32800
32775
32820
32864
32824
32817
32968
32898
32714
32608
32760
32750
32680
32748
32976
32954
32904
32861
32680
32750
32724
32800
32844
32816
32818
32828
32810
32871
32868
33158
32630
32702
32708
32800
32775
32700
32794
32793
32864
33012
32612
32756
33012
32710
32704
32772
32859
32846
32819
32848
33280
33126
32280
32420
32809
32704
32860
32772
32844
32722
32786
32810
32908
32940
32820
32775
32884
33002
32960
32864
32512
32642
32762
32810
32938
32884
32775
32731
32704
32756
32824
32784
32838
32902
32866
32798
32809
32788
32796
32804
32770
32792
32868
32880
32764
32840
32864
32785
32745
32744
32816
32792
32836
32784
32800
32816
32878
32866
32800
32734
32614
32906
33080
33056
32908
32552
32452
33378
32754
32022
32463
32730
32878
32888
32874
32903
32856
32891
32819
32834
32904
33059
32681
32724
32844
32856
32844
32792
32808
32811
32824
32837
32816
32816
32812
32816
32792
32816
32746
32784
32841
32864
32816
32775
32756
32784
32826
32784
32808
32820
32724
32720
32808
33172
33287
32864
32576
32570
32694
32378
32566
32837
32964
32768
32696
32843
32886
32928
33018
32808
32692
32794
32848
32797
32817
32760
32878
32841
32808
32816
32872
32792
32812
32794
32812
32876
32793
32788
32824
32828
32850
32832
32768
32813
32820
32832
32828
32804
32824
32754
32754
32688
32718
32960
33012
32962
32850
32881
32976
32748
32526
32616
32616
32842
32834
32608
32732
32947
32984
32944
32870
32738
32868
32744
32658
32774
32741
32744
32859
32868
32765
32768
32821
32820
32841
32817
32860
32882
32793
32841
32832
32812
32775
32775
32848
32876
32800
32794
32740
32720
32828
32800
32848
33001
33268
32642
32372
32662
32866
32929
32892
32828
32500
32772
32700
32722
32872
32794
32814
32984
32664
32668
32793
32833
32864
32762
32836
32802
32850
32856
32812
32740
32759
32892
32816
32770
32910
32921
32654
32688
32776
32808
32848
32820
32864
32827
32832
32793
32763
32796
32775
32864
32800
32900
32914
32760
32724
32610
32666
32745
33032
32848
32744
32955
32728
32647
32821
32876
32816
32792
32794
32736
32784
32800
32801
32850
32840
32824
32756
32754
32812
32892
32888
32824
32844
32816
32812
32800
32824
32848
32760
32736
32826
32714
32833
33120
32808
32651
32682
32636
32706
32900
32864
32768
32848
32816
32768
32760
32885
32809
32793
32808
32768
32802
32796
32792
32786
32829
32956
32672
32722
32760
32770
32868
32866
32824
32792
32836
32838
32808
32754
32778
32774
32854
32952
32868
32796
32732
32832
33002
32576
32804
32840
32720
32568
32790
32962
32900
32600
32748
32872
32775
32731
32829
32960
32752
32747
32760
32852
32808
32824
32840
32770
32760
32856
32930
32865
32744
32898
32737
33029
32914
32568
32736
32732
33092
33100
32390
32576
32635
32752
32808
32824
32847
32868
32893
32824
32829
32864
32809
32816
32856
32824
32852
32760
32745
32794
32760
32822
32834
32824
32760
32820
32880
32844
32796
32802
32864
32861
32760
32752
32812
32850
32912
32992
32919
32777
32900
32630
32520
32626
32852
32722
32664
32736
32857
32838
32896
32832
32744
32808
32828
32775
32792
32861
32818
32775
32790
32913
32932
32826
32854
32816
32862
32775
32850
32775
32720
32765
32685
32864
32864
32796
32769
32775
32864
32820
32796
32768
32800
32785
32826
32832
32784
32786
32796
32852
32895
32816
32824
32624
32966
33104
33429
32464
32216
32480
32882
32775
32696
33120
32822
32662
32474
32820
32794
32828
32922
32888
32866
32844
32827
32848
32876
32832
32800
32775
32802
32840
32797
32809
32786
32826
32815
32835
32832
32867
32800
32775
32809
32796
32828
32808
32774
32778
32750
32834
32826
32802
32812
32836
32816
33004
32633
32832
32864
32760
33036
32746
32850
32436
32652
32714
32686
32758
32794
32804
32864
32844
32876
32840
32928
32832
32744
32824
32868
32795
32795
32792
32736
32760
32786
32810
32834
32760
32794
32844
32808
32812
32775
32811
32796
32810
32826
32800
32840
32792
32868
32818
32775
32730
32810
32904
32836
32839
32990
33084
33042
32718
33216
32146
32390
32889
32512
32618
32921
32921
32512
32686
32856
32892
32852
32852
32762
32734
32840
32840
32866
32864
32824
32818
32813
32820
32903
32880
32861
32818
32868
32808
32747
32764
32786
32816
32832
32832
32818
32763
32712
32842
33024
32795
32844
32864
32636
32666
32860
32677
32758
33012
32856
32708
32604
32840
32813
32981
32790
32608
32636
32702
32740
32792
32921
33104
32626
32773
32828
32836
32844
32846
32809
32812
32796
32840
32828
32792
32796
32714
32824
32918
32897
32936
32676
32647
32833
32884
32836
32805
32758
32775
32728
32732
32841
32812
32716
32732
32800
32810
32835
32836
32820
32846
32854
32809
32838
32952
32832
32682
32747
32760
32808
32840
32844
32852
32726
32808
32820
32800
32868
32999
32858
32912
32539
32775
32632
32902
32840
32684
32706
32800
32784
33032
33012
32504
32584
32836
32832
32858
32784
32718
32848
32978
32701
32793
32904
32820
32808
32809
32824
32774
32774
32796
32704
32760
32900
32852
32666
32950
33072
32774
32775
32748
32690
32856
33112
32992
32792
32664
32608
32629
32628
32708
32887
32902
32800
32825
32775
32740
32878
32892
32876
32752
32808
32828
32834
32784
32775
32857
32888
32720
32761
32774
32775
32841
32852
32808
32850
32844
32832
32756
32998
32834
32480
32788
32985
32736
32690
32688
32775
32824
32795
32824
32869
32837
32794
32775
32920
32784
32784
32824
32888
32928
32928
32566
32967
32832
32647
32628
32804
32926
32903
32904
32841
32772
32780
32714
32608
32722
32762
32768
32884
32888
32812
32809
32810
32788
32800
32956
33008
33032
32484
32992
32708
32550
32775
32838
32752
32866
32892
32896
32834
32804
32800
32800
32792
32748
32756
32740
32772
32821
32812
32946
32840
32758
32768
32722
32816
32834
33090
32908
32560
32818
32820
32818
32792
32758
32880
32602
32634
32748
32825
32769
32794
32820
32832
32898
32876
32866
32775
32710
32916
33134
32690
32624
32800
32884
32904
33064
32780
32325
32592
32762
32824
32846
32941
32880
32724
32796
32872
32842
32768
32760
32775
32816
32768
32806
32924
32952
32760
32761
33042
32793
32775
32632
32612
32748
32864
32850
32791
32848
32840
32732
32832
32848
32856
32804
33017
33232
32666
32752
32858
32866
32789
32564
32544
32696
32516
32520
32610
32860
32998
32944
32984
32816
32804
32940
32788
32896
32925
32774
32832
32696
32789
33008
32938
32884
32836
32612
32522
32812
33018
32716
32624
32946
32802
32538
32668
32936
32750
32870
33316
32888
32524
32644
32839
32933
32952
32998
32816
32530
32836
32726
32772
32829
32793
32808
32827
32800
32956
32824
32696
32824
32850
32810
32768
32792
32812
32814
32827
32716
32756
32864
33004
32950
32744
32698
32756
32824
32802
32648
32647
32788
32874
32894
32854
32837
32861
32704
32760
32805
32900
33108
32688
32738
32736
32666
32844
32977
32704
32809
32850
32840
32932
32984
32908
32634
32796
32770
32676
32679
32533
32658
32638
32618
32895
33086
32960
32944
32980
32838
32786
32804
32802
32768
32798
32812
32866
32808
32736
32784
32804
32820
32820
32836
32788
32804
32885
32848
32793
32790
32921
32744
32668
32768
32952
32880
32553
32748
32772
32696
32754
32820
32964
33016
32904
33046
32792
32736
32824
32775
32642
32541
32680
32824
32914
32864
33216
32960
32598
32720
32800
32479
32338
32603
32896
32852
32998
32804
32736
32900
32896
32930
32844
32824
32864
32954
32810
32760
32732
33024
32972
32816
32825
32868
32865
32874
32284
32240
32579
32746
32976
32888
32852
32946
32944
32924
32872
33174
32996
32576
32320
32704
32676
32684
32832
32936
32816
32908
32816
32809
32884
32885
32852
32756
32820
32800
32834
32788
32794
32808
32820
32788
32864
32789
32768
32708
32674
32740
32921
32954
32856
32768
32824
32900
32775
32716
32832
32894
32796
33026
32549
32728
32930
32632
32790
32878
32809
32775
32864
32754
32844
32842
32744
32763
32736
32712
32788
32824
32800
32860
32848
32765
32932
32763
32792
32813
32818
32892
32872
32826
32788
32816
32820
32832
32792
32754
32868
32927
32772
32659
32694
32686
32723
32804
32911
32932
32868
32658
32634
32832
33090
33133
32784
32786
32752
32808
32706
32600
32640
32774
32868
32884
32806
32775
32837
32946
32856
32680
32656
32712
32774
32832
32876
33024
33010
32651
32732
32742
32740
32804
32774
32757
32752
32824
32844
32892
32844
33089
33082
32844
32718
32596
32604
32552
32704
32886
32812
32804
32872
32760
32775
32860
32930
32835
32720
32762
32930
32997
33050
33012
32507
32600
32588
32708
32916
33007
33016
32896
32860
32797
32752
32754
32952
32728
32844
33058
33098
32613
32658
32544
32278
32344
32512
32970
32404
32526
33148
33104
32794
32865
32938
32950
32820
32971
32956
32726
32836
32932
32786
32874
32772
32780
32841
32900
32896
32800
32706
32748
32724
32840
32725
32932
32938
32884
32841
32780
32810
32836
32744
32682
32484
32784
32932
32756
32826
32900
32841
32816
32738
32806
32860
32930
32774
32716
32775
32845
32848
32834
32850
32794
32669
33049
33598
33632
33578
33520
33498
33380
33280
32314
30599
30998
31692
31516
30996
31968
32408
32499
33241
33437
33226
33235
33210
33309
33329
33223
33240
33386
33114
33060
33156
33052
32784
32676
32544
32544
33032
33020
33132
33132
32884
32768
32676
32420
32848
33008
32672
32473
32744
32692
32169
32220
32576
32786
32676
32968
33052
33204
32906
32841
32792
32852
32789
32869
32829
32946
32956
33040
32682
32736
32896
33192
32671
32930
33060
33106
32960
32938
32989
32928
33228
32966
31928
32131
32647
32646
32136
32281
31952
32346
32912
32978
32944
32508
32552
32882
33106
33232
33360
33277
33072
33078
32923
32850
32768
33180
32832
33179
33200
33080
32918
32728
31980
32040
32202
32314
32448
32792
32928
33260
33248
33648
33890
33799
33680
33174
32865
32756
31648
30016
30148
31576
32636
32998
32844
32824
33158
33632
33528
33568
33531
32981
33018
33424
33577
33590
33490
33872
33332
32346
32334
31864
31584
31529
31941
32322
32699
33040
32532
31972
32320
33034
33276
33048
32984
33104
33212
33216
32560
32631
33040
32971
33264
33388
32992
32880
33008
32902
32775
32485
32540
32872
32890
32492
32809
33174
32944
33175
32797
32984
33570
32884
32712
32888
32736
31787
31576
31520
32516
32923
33020
32844
32898
33012
33120
33008
32954
32850
33102
33287
33250
32898
33072
33304
33360
32544
32698
32248
33004
33228
32796
32962
32793
31034
30788
31673
32754
32105
32196
33246
33480
33628
33536
33104
32912
33666
33744
32764
33424
34338
34688
32996
32336
30862
30492
31265
32178
33396
32775
32870
33684
33584
32768
31892
31608
31930
32958
33234
32510
32544
33190
33362
33008
32979
32878
33234
33517
33272
33100
33014
32874
32608
32326
32263
32672
33016
33548
33584
33362
33146
33356
32923
31304
31209
31648
32552
33316
33820
33304
32640
32700
32952
32903
32900
32381
32200
32954
32954
32696
32658
32634
32824
33040
32868
33080
32752
32424
32592
33126
33329
33324
33240
33088
33396
33388
33030
32796
32192
32336
32652
33074
32722
33428
34058
32492
31084
31970
32192
32278
31832
30940
32322
33650
33948
33729
33436
33088
33408
31867
30458
30725
31563
33033
33697
34016
33568
33377
33901
34002
34002
34084
33677
33498
33792
33174
30880
30888
31268
31494
31995
33211
33656
33852
33516
33172
32048
32511
32765
32384
32168
32078
32890
33472
32892
32728
32618
32536
32895
33694
33064
33442
33900
33473
32520
32208
32650
32646
32386
32244
33176
33896
33916
32580
33176
34928
34778
33750
32990
31700
31204
30300
28736
28576
31440
33244
32834
32872
34506
36871
36359
35226
35908
34104
29984
28800
28758
28833
29836
30829
32290
33934
33978
33740
35080
34948
33266
32444
32920
34364
35048
33776
32901
34460
35186
33876
31336
29144
30672
31826
30776
31468
31540
33488
34333
33376
32986
32602
32296
33000
33248
33820
34272
33688
33997
35172
33286
33192
32192
31076
32248
31849
32616
31815
32820
32774
31520
31228
31948
32592
33018
33225
34248
34060
33363
33410
33600
33664
34146
34360
33640
33870
33104
31552
30626
30209
31708
33668
33809
32768
30821
32352
32544
30944
27458
29862
33056
34096
34012
34168
32802
32220
33030
33402
35474
36516
35624
36218
36248
35972
35328
32064
30344
28978
28521
28604
29124
31264
31179
31362
32476
32706
33180
32608
33640
36064
35679
33888
33176
33390
32940
33164
33276
32802
33498
34352
33427
31459
31824
32784
31784
30226
31696
32605
33362
34333
34238
33410
33472
33300
32860
32622
32704
32170
30544
30634
32788
33018
33236
33195
34152
34749
35416
35232
34274
34352
32372
29088
30738
32628
32600
28498
28200
30322
32330
33120
33284
33904
34508
34325
34480
33740
35072
34360
34796
34044
31676
31546
29873
30660
32314
33826
32994
32746
32584
33536
34880
35168
35640
33458
31104
30240
28948
27536
30012
32452
34084
34258
33426
34748
34234
34488
35032
34989
35361
35326
34514
30072
24748
27688
31264
33048
34180
35155
34860
33840
33040
32382
31516
31404
32010
34482
34076
33461
33788
34168
34606
34044
33644
32647
32950
33082
33092
31682
31645
29117
27128
28900
31862
33792
34149
32970
34442
36196
35490
33696
33960
33528
32528
29916
31170
34588
33668
29489
29504
31751
33180
33728
33570
33252
33378
33504
33912
34856
33632
32156
33225
33060
33287
33076
33798
32716
32648
31660
30944
31968
33145
35722
36716
34281
33721
32224
31751
27616
26072
29644
31672
33632
33504
34020
33512
33920
34400
35168
34660
33624
34848
36389
35804
33852
34338
33404
30336
25234
23644
27868
30888
32700
33736
34056
32760
34452
34800
34136
34405
34674
33785
33580
33236
32752
31892
34092
34616
33400
32900
32344
33178
32752
31832
31984
32216
32232
33518
36264
37350
35164
33872
33284
30608
24252
24272
28552
30708
32489
33306
34542
35680
35640
35131
34442
34434
34665
33208
32484
31973
32673
32384
30460
31062
32248
32668
32682
32476
32856
34428
34107
32969
32965
32775
33634
33540
33396
32888
32921
33138
33106
32706
32620
32789
32484
32004
32969
34524
34708
34363
32760
31888
30968
28832
30716
33224
32888
33432
32738
34030
33857
34020
33306
33340
32366
31448
30976
31060
31159
32720
32312
32864
33953
35520
35561
34708
34300
35584
35010
32728
29701
28144
31359
29596
27802
29730
32576
34778
34866
34230
34248
32512
32800
33584
32860
33408
33828
33682
33400
32484
32656
32586
32650
33532
33799
32840
33954
34648
33945
33109
32258
32434
31496
31040
30848
32098
33260
33306
33745
34752
34776
31553
30404
31584
32400
33624
33865
32848
32748
33593
33936
33326
33140
34216
32852
31538
27694
28555
31321
29612
31312
33313
35680
34232
33560
34928
34272
33490
33750
34116
33240
33984
33432
32676
33126
33224
31476
31856
32036
32472
32212
33276
33504
33496
32162
32150
32564
32960
33004
32210
32184
32568
32837
33116
34500
34980
35188
37440
37244
35644
32598
27904
26328
23870
26113
30778
34564
33452
32466
34108
35144
35182
34021
32818
33977
34436
34092
34236
33408
31236
30964
29932
31432
32324
32978
33348
33716
33974
33046
32946
33204
32922
33049
33725
33730
33180
32992
33392
32864
32248
32704
34006
34376
32984
32205
32416
32544
32024
31244
32648
32960
34218
33952
32199
33000
32600
30690
31232
32444
32860
33672
32482
32056
32656
31913
33432
33592
33202
30896
31704
31156
30592
32600
34546
34218
34030
34204
33620
32784
32804
32764
32548
32856
33532
34226
34256
34420
34576
32918
31786
31955
31248
30077
30046
31324
32608
33080
33616
33714
33738
33415
33546
35220
33216
32676
33048
33676
35290
36121
35088
32788
31800
29496
28088
29786
31532
32667
32306
31216
29900
32588
32850
33172
32954
33357
33620
34640
34477
35012
34802
32946
31104
32212
33276
32470
30781
31178
32184
33088
33020
32894
32723
33608
33810
33060
32968
32636
33645
33817
33570
32194
32438
32214
32806
32680
32613
32526
32934
33232
33799
33560
33320
32816
32440
32812
32336
32420
32395
32580
32474
33296
33324
32738
32888
32872
32210
32728
33555
33185
32600
31992
32263
32856
33224
32120
32236
32866
33440
32536
32612
33381
33176
32390
32633
32314
33608
34116
33368
33464
31372
31776
31736
32044
32726
32850
33174
32872
32736
32642
32484
32850
33448
34492
34476
34770
34860
34258
32340
30312
28660
29404
31508
33637
34393
34440
34426
34284
33590
33584
32676
30416
28248
28306
29852
31992
33652
34361
34676
34192
34338
34136
33608
33820
32348
32556
33034
31834
32666
33874
34184
33696
33562
33480
33222
32286
32381
33042
32594
31960
31920
31751
31528
32486
34252
33756
31994
32220
32853
32794
32792
33372
33004
33150
33276
33420
33594
33737
33440
32541
32318
31201
31624
31804
32296
33374
32480
32788
33304
33438
32829
32612
33197
32196
32706
32976
32391
32500
33195
33296
33300
32650
32288
33396
34061
33209
32344
32092
32320
32914
32912
32712
32224
32765
32873
32144
32018
32818
33012
32792
33000
32928
33456
33253
32761
33602
33762
33520
32304
31964
31880
31977
32679
32730
32827
32640
32923
33348
33602
33248
32881
32788
32856
33158
33076
32870
32160
32091
32613
32788
32856
32552
32380
32487
32897
33556
33514
33242
32860
32801
32622
32037
32212
32460
32474
32936
32720
32760
32884
32696
32775
32912
33004
32976
33042
33000
32728
32656
32805
32701
32885
33117
32656
32666
33060
32696
32864
33092
32584
32604
32616
32636
32896
33250
33370
33058
32756
32774
32908
32605
32646
33036
32704
32438
32580
32848
32878
32801
32626
32878
33024
32836
32720
32717
32841
32872
32622
32624
32576
32800
32802
32826
32952
32838
33065
32784
32854
32984
32790
32692
32757
32888
33016
32792
32796
32752
32966
32662
32536
32960
32740
32466
32786
32828
32868
32804
32785
32662
32811
32640
32854
32973
32944
32992
32898
33108
33192
32981
33134
33026
32864
32672
32007
31634
32729
33248
32722
32408
32372
32504
33247
33380
33138
32916
32770
33168
33154
32952
32680
32592
32696
32696
32480
32677
32841
32650
32800
33054
32152
32036
32360
32630
32850
33004
32800
33104
33177
33388
33328
33352
33208
33100
32632
32128
32356
32632
32853
33186
33164
32976
32816
32573
32416
32696
32898
32664
32756
32828
32804
32742
32952
32964
32916
32816
32827
32818
32760
32840
32832
32786
32809
32960
32696
32724
32762
32820
32820
32728
32740
32860
32912
32740
32744
32888
32802
32640
32728
32964
32820
32775
32784
32865
32874
32696
32824
32774
32882
32884
32865
32762
32810
32874
32744
32520
32556
32684
32816
32736
32962
32712
32707
32874
32944
32940
32744
32676
32602
32448
32856
33232
33074
33106
32708
32945
33248
32868
32644
32704
32841
32728
32524
32662
32872
32808
32664
32672
32722
32730
32842
33080
33004
33000
32936
33072
32928
32460
32784
32564
32560
32612
32572
32824
32764
33045
32768
32610
32968
33032
32902
32950
33012
32964
32856
32962
32760
32854
32624
32440
32674
32904
32352
32472
32706
32698
32928
32868
32928
33036
33016
33017
33064
32518
32476
32448
32496
32692
32589
32674
33438
33449
33360
33286
32850
32668
32618
32592
32704
32828
32750
32696
32666
32634
32722
32784
32774
32878
32756
32786
32874
32848
32922
33054
32948
32880
32770
32700
32672
32827
32742
32588
32584
32714
32878
32946
32730
32584
32848
32900
32950
33102
32864
32710
32596
32784
32804
32804
32738
32758
32816
32840
32941
32866
32552
32761
32998
32764
32594
32380
32712
32947
32836
32796
33082
32916
32592
32988
32873
32869
33064
33188
33104
32844
32724
32795
32666
32714
32848
32690
32572
32584
32892
32901
32700
32568
32616
32612
32674
32828
33018
33074
33121
33010
32916
32868
32736
32960
32432
32622
32544
32622
32775
33088
33014
32714
32801
32974
33108
33088
32821
32838
32734
32688
32636
32706
32714
32667
32728
32640
32652
32690
32750
32706
32800
32918
32942
33176
32602
32768
32786
32810
32809
32920
32716
32844
32582
32720
32938
32800
32816
32992
32912
32828
32860
32772
32864
32728
32594
32761
32886
32894
33104
33440
32448
32352
32372
32980
32834
32562
32552
32680
32816
32844
32826
32886
32854
33058
33082
32832
32834
32816
32706
32800
32724
32632
32592
32676
32994
32928
32868
33184
33106
32926
32880
32788
32699
32646
32732
32816
32836
32848
32756
32722
32796
32684
32795
32830
32706
32548
32583
32711
32604
32841
32895
32896
32980
33084
33068
32837
32760
32856
32804
32720
32745
32816
32824
32819
32861
32736
32723
32846
32829
32775
32784
32768
32892
32808
32724
32640
32628
32923
32728
32737
32832
32720
32857
33104
33168
32920
32802
32824
32860
32856
32818
32724
32692
32632
32686
32752
32838
32974
33016
32612
32416
32612
32800
32868
32870
32676
32580
32864
33122
32774
32632
32808
32816
32964
33148
33096
32908
32598
32612
32704
32796
32806
32828
32740
32732
32853
32746
32784
32775
32800
32822
32772
32757
32556
32654
32677
32764
32932
33168
33000
32950
32828
32668
32716
32768
32728
32784
33107
32861
32860
32967
32884
32770
32786
32752
32833
32740
32633
32707
32771
32792
32768
32856
32716
32750
32752
32835
32793
32864
32918
32856
32828
32749
32652
32770
33176
32955
32529
32732
32802
32885
32829
32709
32680
32736
32808
32832
32775
32690
32980
32992
32923
32864
32839
32908
32633
32617
32936
32730
32736
32852
32846
32816
32656
32620
32833
32768
32918
32844
32616
32722
32852
32775
32786
33286
32957
32704
32792
32832
32824
32825
32690
32649
32712
32824
32876
32876
32916
32844
32688
32802
32800
32852
32804
32820
32860
32824
32896
32640
32791
33224
32916
32389
32636
32742
32864
32638
32768
32872
32880
32984
33106
32628
32612
32628
32718
32989
32720
32768
32985
32489
32930
33164
32992
32832
32642
32748
32774
32852
32950
32824
32698
32704
33005
32780
32784
32775
32710
32775
32712
32745
32736
32819
32752
32846
32861
32848
32808
32825
32786
32808
32824
32993
33188
33042
32208
32272
32516
32714
32820
32680
32844
33035
33192
33122
32988
32956
32888
32844
32666
32794
32832
32740
32715
32748
32714
32762
32837
32709
32765
32824
32832
32690
32775
32804
32756
32832
32809
32786
32925
32808
32782
32816
32775
32858
32888
32841
32857
32809
32812
32832
32736
33008
33060
32489
32576
33078
32844
32504
32940
32837
32314
32730
33029
32536
32536
32880
32866
32808
32834
32860
32652
32808
32925
32925
32852
32890
32833
32785
32800
32811
32910
32843
32864
32774
32800
32812
32808
32808
32745
32832
32904
32828
32714
32696
32738
32762
32941
32843
32809
32903
32775
32686
32808
32701
32825
32832
33128
32928
32787
32668
32504
32846
32808
32788
32730
32646
32628
32696
32736
32938
32895
32755
32681
32903
32932
32936
32944
32824
32708
32690
32898
32756
32844
32923
32850
32810
32768
32769
32790
32784
32804
32824
32752
32786
32748
32712
32800
32834
32852
32872
32824
32851
32747
32775
32860
32788
32744
32788
33098
32816
32454
32992
32775
32905
32684
32800
32844
32464
32699
32966
32956
32553
32740
33033
32832
32768
32762
32768
32858
32928
32865
32824
32714
32872
32802
32690
32906
32885
32797
32864
32836
32768
32816
32735
32744
32763
32678
32922
32952
32900
33028
32888
33057
32792
32700
32701
32696
32792
32932
32910
32512
32544
32724
32793
32775
32762
32904
32861
32878
32872
32845
32808
32938
32852
32685
32793
32806
32836
32816
32828
32815
32764
32764
32752
32840
32834
32870
32768
32864
32970
32940
32792
32548
32785
32930
32768
32712
32720
32884
33034
32736
32672
32620
32748
32826
32772
32732
32774
32839
32832
32824
32952
32828
32760
32761
32752
32784
32840
32772
32811
32816
32814
32796
32774
32796
32834
32922
32885
32788
32792
32797
32713
32736
32744
32840
32934
32828
32728
32848
32897
32612
32736
32894
32844
32756
32775
32838
32834
32804
32784
32832
32816
32878
32746
32710
32922
32988
32710
32708
32690
32688
32920
32916
32835
32756
32800
32946
32860
32745
32768
32784
32792
32828
32771
32878
32880
32775
32850
32856
32813
32808
32793
32823
32768
32800
32836
32824
32778
32716
32730
33092
33026
32788
32816
32671
32708
32680
32760
32802
32786
32786
32762
32809
32784
32760
32878
32768
32801
32788
32856
32900
32932
32832
32656
32744
32814
32896
32836
32904
32889
32792
32688
32692
32758
32820
32771
32884
32848
32784
32636
32796
32884
32812
32740
32884
32960
33138
32666
32608
32728
32744
32784
32544
32837
32912
32800
32560
32647
32816
33049
32962
32893
32758
32792
32800
32888
32898
32736
32696
32946
32984
32648
32768
32820
32796
32841
32904
32925
32828
32643
32683
32812
32868
32826
32860
32967
32832
32635
32742
32816
32834
32784
32710
32775
32948
32835
32732
32762
32712
32775
32880
32825
32752
32896
32890
32885
32785
32774
32784
32740
32928
32866
32718
32566
32589
32756
32846
32866
32916
32784
32812
33072
32936
32850
32770
32832
32864
32768
32809
32774
32792
32664
32592
32733
33390
32660
32552
32785
32845
32852
32865
32800
32818
32742
32648
32724
32774
32818
32841
32864
32992
32868
32694
32762
32868
32824
32811
32824
32796
32867
32888
32850
32808
32728
32827
32850
32861
32796
32828
32748
32944
32606
32691
32772
32728
32892
32624
32672
32748
32793
32950
32888
32920
32933
32804
32708
32734
32856
32840
32806
32836
32866
32827
32777
32712
32757
32792
32866
32592
32752
32856
32946
32847
32765
32868
32946
32402
32792
32946
32832
32745
32720
32746
32786
32874
32864
32859
32848
32836
32788
32844
32850
32652
32710
32880
32802
32752
32784
32784
32808
32908
32745
32808
32948
32816
32882
32836
32509
32740
32804
32827
32903
32768
32813
32915
32699
32774
32838
32792
32805
32784
33022
32732
32544
32817
32914
32836
32848
32737
32570
32848
32932
32905
32878
32802
32740
32868
32822
32752
32792
32688
32775
32752
32818
32940
33021
32786
32672
32775
32837
32996
32968
32872
32450
32582
32754
32920
32984
32800
32722
32752
32616
32628
32908
32858
32804
32826
32698
33081
32936
32820
32690
32824
32828
32978
32826
32746
32804
32563
32568
32884
32923
32824
32736
32804
32775
32775
32740
32793
32957
32920
32722
32896
32840
32775
32804
32850
32628
32744
32816
32833
32770
32824
32809
32768
32858
32824
32810
32864
32766
32825
32852
32865
32768
32635
32879
32912
32809
32800
32800
32788
32720
32710
32760
32936
32948
32696
32672
32887
32808
32836
32756
32792
32860
32816
32724
32770
32876
32964
32840
32960
32718
32520
32746
32732
32786
32914
32878
32857
32773
32840
32808
32836
32723
32772
32728
32818
32765
32892
32874
32857
32796
33208
32388
32523
32820
32968
33000
32762
32660
32760
32816
32824
32875
32594
32712
32819
32838
32887
32824
32833
32868
32844
32794
32799
32712
32844
32868
32722
32752
32817
32801
32752
32952
32948
32820
32688
32980
32864
32561
32616
32704
32690
32880
32888
32856
32898
32872
32788
32768
32752
32720
32813
32852
32800
32775
32804
32775
32800
32808
32856
32856
32824
32832
32800
32876
32832
32840
32696
32684
32684
32832
32808
32846
32872
32919
32760
32760
32784
33030
33053
32796
32817
33044
32570
32310
32656
32795
33130
32642
32816
33076
32544
32788
32914
32668
32614
32802
32838
32794
32850
32810
32758
32858
32940
32832
32872
32837
32844
32771
32720
32696
32968
32816
32848
32856
32832
32785
32892
32768
32856
32828
32802
32745
32696
32770
32932
32948
33032
32808
32644
32760
32775
32570
32663
32534
32576
32825
32921
33008
32964
32747
32775
32818
32792
32845
32793
32867
32852
32854
32840
32834
32880
32792
32808
32768
32877
32834
32784
32752
32870
32870
32616
32775
32850
32774
32620
32736
32896
32834
32858
32866
32920
32826
32733
32768
32840
32818
32716
32826
32805
32814
32876
32864
32808
32804
32752
32711
32840
32872
32856
32948
32876
32936
32808
32584
32837
32725
32664
32736
33032
32876
32634
32681
32772
32960
32526
32834
33028
32827
32813
32775
32813
32804
32866
32808
32804
32792
32836
32824
32792
32768
32848
32821
32804
32864
32952
32728
32781
32847
32816
32832
32790
32800
32700
32690
32731
32883
32786
32728
32856
32891
32877
32722
32720
32829
32804
32848
32827
32676
32698
32848
32785
32737
32827
32912
33000
32888
32872
32904
32937
32850
32820
32760
32626
32612
32647
32672
32699
32816
32808
32794
32724
32712
32840
32994
33036
33011
33080
32978
32762
32680
32696
32699
32775
32737
32764
32772
32760
32796
32800
32802
32800
32868
32622
32904
33066
32838
32704
32720
32757
32768
32764
32837
32886
32774
32798
32712
32592
32573
32642
32746
33016
33204
33256
33070
32864
32704
32656
32728
32760
32948
32928
32826
32698
32690
32756
32644
32676
32857
32848
32700
32644
32752
32832
32772
32736
32794
32880
32844
32922
32658
32496
32864
33122
33108
32992
32838
32882
32888
32784
32760
32724
32752
32714
32647
32700
32882
32677
32880
32653
32736
32872
32925
32816
32808
32704
32694
32775
32864
33068
33252
32952
32824
32756
32762
32692
32637
32728
32804
32889
32808
32768
32784
32816
32848
32820
32676
32768
32897
32861
32840
32752
32742
32673
32839
32918
32590
32956
33146
33012
32889
32816
32756
32752
32736
32391
32380
32788
32968
33006
33094
33108
32908
32856
32586
32460
32452
32626
32592
32824
32868
32864
32797
32702
32784
32549
32552
32665
32844
33192
33394
33390
33104
32996
32903
32825
32968
33010
32162
32031
32566
32692
32804
32965
32810
32588
32512
32742
32808
32836
32824
32931
33240
33364
33138
33312
33406
33121
33118
32784
32032
32324
32334
32208
32468
32270
32178
32068
32638
32996
32888
32671
32708
32788
32992
32974
33371
33448
33866
33549
33040
33106
32968
32745
32468
32758
32765
32780
32902
32644
32540
32480
32648
32560
32521
32708
32910
32910
32872
32731
32572
32888
33159
33048
32853
32600
32330
32548
33028
33344
33242
32888
32708
32706
32861
32837
32608
32334
32612
32902
32841
32712
32515
32812
33223
32920
32814
32744
32960
33210
33048
33162
32970
32780
32544
32128
32360
32568
32494
32614
32600
32690
32608
32672
32957
33033
33052
32936
33031
33074
32994
33010
32864
32861
32992
33116
32875
32818
33005
32943
32743
32732
32664
32838
32818
32450
32612
32580
32774
32840
32784
32813
32596
32723
32930
32801
32874
32993
33132
32952
33040
33428
33533
32986
32166
32192
32560
32432
31894
31512
31616
32576
33184
33344
33430
33168
32754
32708
33250
33142
33148
32976
32912
32784
32714
32775
32866
32984
32763
33046
33072
33048
32756
32576
32410
32394
32306
32392
33224
32842
32410
32280
32922
33052
32910
33513
33588
33084
33123
32802
32328
32396
32420
32690
33028
32584
32384
33296
33385
33244
33016
32974
33122
32808
32356
32430
32390
32312
32408
32660
32586
32632
32752
33322
33940
33136
32636
32530
33287
33348
32772
32652
32794
32816
32668
32670
32484
32464
32724
32454
32612
32830
32504
32825
33066
32808
33024
33416
32816
32562
32888
32894
32761
32699
32848
33196
32860
33114
33034
33033
32680
32843
32874
32730
32960
32252
31848
31890
32610
32750
32326
31849
32472
33260
33132
33220
33154
33298
33044
33096
33576
33268
33604
33473
33296
33328
33465
32720
31864
31338
29900
30392
32064
33855
33812
33220
32796
32720
33084
33418
32936
32272
32388
32594
32984
33594
33309
33200
32884
32612
32924
33217
32904
33091
33267
33346
33524
33298
33508
33124
32468
32188
31724
31184
31621
32372
32472
32946
33020
32660
32185
32651
33432
33816
33606
33486
33966
34171
34088
33404
32840
33266
32839
30460
31104
31976
31315
30280
30856
31280
32860
33368
33622
33616
33874
34304
34560
34786
35213
35104
34568
33944
33708
31442
28762
27555
29304
30212
30270
32025
34296
34568
34728
34296
34122
33840
33978
33064
32104
31890
31446
31044
32528
33608
33733
33010
32936
33344
33600
33887
33684
33260
33210
32738
32696
33068
32838
32176
31612
32416
32908
32660
33001
33368
33412
33120
32804
32556
32380
32770
32870
32446
32648
32568
32746
32664
32360
32960
33160
33112
33534
33456
33208
32844
33106
32741
32354
32344
32080
31252
31376
31534
31584
33088
33570
33576
34604
34419
33799
32630
32808
32530
33040
33542
34074
35068
34382
32984
32132
30672
31021
31346
30685
31654
32680
33540
32834
32200
31052
31056
31726
33901
32372
32738
33410
32956
32864
33224
34138
34480
33944
33355
32864
33324
33622
33480
33172
33296
33588
33555
32560
31304
31152
30972
31756
32775
33248
33517
33152
33370
32960
32838
33112
33396
32708
32466
33243
32836
32518
32472
31960
32020
32406
32578
33132
33824
32970
32864
32808
33730
34056
33946
31239
31682
33088
32508
31466
32196
32600
32306
33780
34122
34394
34210
34658
34308
32496
31721
31560
31854
31288
32546
33664
33484
32856
30792
28306
27226
30512
33640
34643
33560
34140
32722
31778
32896
33413
35504
36230
36080
35938
34849
34104
32769
32053
31412
29636
27664
29797
32125
33234
34036
33758
33608
33924
33938
32720
33069
32525
33112
32784
32428
32832
33408
32416
32536
32744
33016
33602
32824
32504
32340
31852
32075
32816
33438
33634
33868
33108
33225
33367
32356
32948
33979
33381
31832
30344
31190
31948
33474
33784
33720
34584
34346
32930
31072
30243
31640
32149
32481
33368
33584
33836
32832
32800
34298
32885
33257
33056
33458
34170
31904
29668
32212
33298
31248
29596
32681
34836
33890
32840
32468
31906
32328
33544
33749
33442
32708
33121
32775
32697
33586
33216
33456
32570
32912
33128
32565
33128
32356
32696
32883
32022
33106
33628
32344
32304
32760
33622
33768
33396
32592
31866
32414
32440
31200
31684
33440
34164
33597
33432
33360
32904
32932
32012
32164
32032
31146
32152
32666
33348
34536
35498
35716
33444
32480
31858
31708
30976
30374
32186
34462
34378
32196
32904
33098
32934
32152
30560
32442
32048
31269
31330
32626
33452
33287
34460
34664
33608
33306
33320
34196
32450
32376
33424
33232
32404
31672
30878
29156
29834
33250
35541
34000
33432
33524
33738
32270
31716
33852
34000
33826
33176
32962
32730
33387
33577
31920
31868
32834
34618
33140
32728
33605
33492
31040
29096
29952
31744
32454
32952
33352
33760
34768
33952
33776
33988
34018
32500
31163
31164
33000
33196
32812
33122
33748
34664
33164
32208
32524
33201
32413
31898
32998
33376
31174
31936
33916
33728
32816
30480
31156
32664
33060
33528
34100
33992
32136
32400
32704
32544
32294
31768
32521
34050
35244
34000
32202
32520
33432
30184
29232
31728
33256
33479
33466
33564
33340
32720
32448
31884
35210
34288
33300
32748
31924
32102
29716
30764
31824
33100
33724
33441
34130
33906
34273
34988
34308
33524
31751
30917
32632
33792
32476
32464
33297
32996
31704
30836
32980
34462
33752
32942
32616
32420
31764
31816
31490
32770
32864
32672
32944
32894
33784
32797
32224
33856
34115
34802
33416
32824
33544
34128
34888
31520
30696
29016
28236
31092
32329
33248
34060
33646
34272
34914
34000
32541
32189
32944
32884
32636
34500
33648
33724
34242
32177
30727
29462
30698
32144
32700
32915
32748
31686
31628
33078
34120
34355
33424
34320
33124
32680
33473
32852
33236
33478
32774
32604
34576
35792
35741
34680
33696
33441
30405
25752
25172
28020
31482
33236
33224
33728
33950
34636
35398
35728
34439
34664
32356
30612
30492
33070
34417
35548
35098
34760
34716
32944
31157
30781
31708
29776
28028
29676
31942
33272
33712
33496
33248
34264
34728
34348
33699
33040
33074
34412
34692
32842
33331
34618
34002
33314
31234
29256
30068
30752
29408
29082
29968
32720
32908
32858
33856
34218
35476
35304
34204
34089
33092
33405
33817
34696
34938
35682
35812
34664
32012
28640
24176
25361
29712
32216
33972
35976
35392
34848
34188
33104
33060
32928
32624
31188
33496
34820
32832
31880
31867
33113
34168
31800
32528
32737
33520
33870
34128
32542
31820
33293
33808
33924
32312
33472
33370
32984
31884
30160
30088
31976
33966
34170
33868
33730
32610
33452
34672
35398
32064
30098
31338
31804
29636
30796
32664
32728
33104
33428
33792
33234
32274
31624
32132
32186
31392
31824
33810
35712
36203
35453
36272
35324
30727
32140
34107
32904
31628
30741
30176
29052
30768
33980
35296
34368
32444
33092
32418
32440
32682
32480
32196
32656
33208
33388
33779
32704
32454
33634
32754
31948
31484
32813
32228
32154
33078
32220
33204
34186
33956
33799
34592
33988
32100
31590
32620
33096
32808
33088
32748
31788
32388
32864
33284
32894
32605
32228
32126
31637
32774
34576
34098
31986
31902
32647
32272
31204
31834
31888
32732
33452
35240
34210
31904
32024
33813
34532
34738
34322
33917
32570
32504
30612
30752
30584
31112
33064
31900
30322
30892
31260
31828
32526
34532
35604
35580
35040
34364
34744
34336
33353
32224
31708
31784
32060
31949
32216
33324
33652
32482
32240
33349
33324
33328
34280
33888
31468
31988
33242
31853
31888
31108
31332
32885
33284
31475
32091
32952
32940
32968
33426
33480
33680
33840
32530
32784
34280
33666
33266
33024
31816
32220
32110
31706
32361
32522
32600
33320
33760
34544
34712
33920
32476
32404
31400
30368
30976
32522
32256
31787
32192
33228
33432
33117
33316
33350
32890
32360
32094
33412
33730
34376
34082
32775
32410
32410
32263
31588
31956
33330
34267
34229
33774
33858
33680
33322
32942
32470
31664
30712
30168
29756
31452
33461
33824
33522
33468
33396
33926
33464
32504
33048
33027
32560
31569
31470
32562
32692
32672
32356
32436
33400
34822
35112
34252
34496
33360
32540
32084
32138
31808
31950
32711
31960
32094
31846
32156
33418
33414
32938
33216
32320
31704
32660
34474
33580
32903
32418
32504
32789
33168
33344
33186
32510
32565
32570
32642
32842
32792
32904
32448
31954
32688
32832
32040
32229
32930
33486
33434
33706
34316
34812
34720
33772
32568
30838
30120
30008
30392
31902
33116
33120
33102
33952
34208
33799
33416
33368
32672
32410
32652
32748
32596
32414
32620
32834
32972
32443
32552
33168
33465
33532
33216
32800
32774
32903
32728
32324
32894
32692
32608
32608
33220
33580
32964
32620
32848
32774
32480
31564
31908
32192
32400
33181
33150
32996
32826
32944
32775
33024
33388
33160
32684
32808
32944
32852
33034
32189
32112
33044
32976
33098
33172
32656
32472
32354
32894
32720
32613
32840
32568
32650
32885
32969
33236
33272
33080
33060
32841
32928
33236
33076
32523
32532
32824
33056
33060
32338
32322
33024
33660
32792
32138
31474
31858
32964
33164
33248
32800
32618
33257
32936
33496
33589
32954
32660
32144
32248
32737
32903
32108
31602
32376
32644
32627
32582
32688
32907
32938
33148
33112
33216
33360
33260
33008
32970
32918
33084
32876
32896
32642
33048
33744
33604
33362
33838
33744
33046
30969
30344
31032
32472
32610
32848
33112
33120
33371
33102
32632
32412
32332
32616
32840
32914
33180
33144
32904
32940
33116
32868
32675
32775
32848
32956
32763
32605
32824
33134
33196
32704
32812
33008
33008
32536
31812
32164
33240
33298
32619
32520
32912
33166
32680
32918
32852
32632
32353
32704
33109
33402
33324
33068
33102
32722
32710
32612
32710
33048
33488
33666
33714
32673
32500
32162
31924
31612
30772
30102
31777
33226
33488
33616
33234
33266
33268
33185
33177
33074
33156
33159
33021
33233
32706
32903
33069
33162
33049
32846
32492
32450
33312
32884
32360
32628
32816
32752
32520
32618
32610
32568
32672
32902
33096
33282
32898
32610
32486
33130
33028
32732
32672
33084
32704
32516
32916
32784
33020
32936
32394
32080
32352
33060
33159
32811
32845
32801
32848
32820
33122
33268
32391
32325
32480
32813
33340
33492
33018
33432
33180
32544
31815
32864
33332
33256
32784
32436
31844
31698
32250
33056
32732
32716
33112
33016
32792
33352
33040
32775
32984
32482
32864
33168
32866
32500
32676
33346
33348
32880
32528
32541
32928
32648
32596
32516
32794
33080
33960
32340
32441
32656
32737
33096
32874
32964
32554
32480
32624
32516
32608
32658
32584
32832
33082
32920
32808
32576
32232
32874
33196
33180
33024
32848
32980
32906
33064
32978
32604
32508
32825
32768
32642
32780
32968
33065
33626
33253
32600
32998
33157
32992
32420
31830
32263
32336
32344
32254
32068
32660
32904
33069
33102
33133
33237
33505
32984
32820
33152
33117
33085
33080
33244
32772
32540
31998
32242
32712
32788
32624
32344
32384
32816
33084
33001
33002
32880
32920
33029
32820
32792
32962
32914
32924
33024
32444
32480
32448
32788
33000
33136
33061
32874
32688
32836
33186
32809
32768
32548
31943
32548
32858
32962
33116
33204
33198
33048
33040
33282
33668
33580
32730
32338
32480
32393
31456
31002
31716
32286
32957
32920
33384
33486
32716
33046
33192
33058
32968
32996
33287
33032
32564
32515
32536
32540
32818
33000
32616
32764
33008
32908
32800
32944
32916
32700
32763
32808
32880
32922
32848
33053
33122
32816
32556
32664
32789
32668
32688
32761
32744
32797
32784
32873
32953
32878
32773
32937
32876
32686
32668
32742
32784
32912
32884
33010
32808
32706
32788
32792
32741
32592
32868
32936
32548
32647
32808
32810
32775
32840
32934
32992
32976
33024
32810
32698
32716
32680
32704
32784
32784
32784
32760
32878
32950
32906
32906
32616
32604
32651
32696
32816
33168
32630
32536
32809
32916
32900
32864
32864
32841
32746
32848
32827
32838
32736
32760
32852
32828
32760
32654
32738
32775
33064
32872
32897
32980
33090
32704
32851
32802
32824
32772
32800
32912
33099
33430
33119
32654
32360
32176
32176
31988
31822
32440
32794
32946
32978
33024
33058
33016
33276
33184
32952
32930
32816
32902
32688
32793
33188
32972
32616
32668
32685
32835
33216
32320
32544
32854
32786
33032
33020
32928
32762
32736
32728
32704
32808
32822
32808
32862
32912
32742
32800
33170
32512
32608
32824
32920
32868
32874
32729
32640
32772
32792
32766
32784
32720
32740
32896
32757
32832
32903
32816
32768
32793
32852
32962
32722
32672
32820
32780
32784
32864
33056
32556
32725
32856
32806
32872
32852
32710
32740
32832
32900
32630
32568
32912
32978
32829
32888
32904
32647
32628
32772
32936
32903
32760
32754
32816
32859
32752
32644
32816
32946
32856
32756
32952
32954
32592
32706
32832
32775
32740
32775
32938
32874
32752
32885
32775
32748
32810
32856
32860
32906
32802
32508
32580
33168
33600
33353
32592
32448
32576
32357
32584
32562
32656
32928
32785
32796
32820
32816
33180
33300
32610
32621
32706
32745
32736
32888
32809
32844
32806
32741
32758
32874
32898
32824
32876
32836
32818
32778
32853
32844
32824
32848
32808
32714
32829
32772
32818
32775
33185
33612
32406
32372
33072
32324
32602
32552
32924
32670
32632
32804
33064
32752
32736
32812
33158
32700
32906
32884
32769
32910
32848
32754
32740
32658
32844
32868
32876
32824
32836
32828
32792
32832
32808
32848
32775
32800
32748
32790
32795
32809
32792
32803
32724
32771
32753
32789
33007
32920
32820
32800
32885
32900
32814
32648
32765
32775
32760
32775
32856
33010
32818
32768
32422
32736
32686
32866
32752
32536
32962
32944
33052
32826
32792
32966
32848
32956
33000
32736
32486
32436
32576
32578
32807
32732
32740
32904
32980
33060
32968
32752
32882
32876
32808
32922
32846
32792
32735
32736
32760
32845
32754
32720
32778
32858
32775
32794
32824
32795
32874
32878
32852
32818
32790
32944
32892
32820
32712
32833
32804
32661
32715
32736
32752
32801
32744
32775
32788
32892
32885
32790
32966
32880
32704
32672
32754
32960
32901
32748
32748
32860
32880
32700
32868
32839
32720
32763
32838
32828
32714
32838
33224
33216
32440
32538
32750
32798
32813
32836
32796
32810
33016
32714
32584
32902
33030
32576
32664
32779
32784
32868
32870
32768
33094
33051
32414
32968
32714
32478
32690
32818
32828
32740
32796
32824
32824
32808
32794
32864
32825
32801
32868
32844
32832
32872
32804
32898
32856
32616
32796
32764
32840
32843
32814
32763
32840
32824
32992
32868
32752
32774
32750
32784
32820
32708
32698
32864
32868
32754
32732
32454
32632
32804
33048
33084
32859
32868
32872
32927
32908
32942
32980
32957
32887
32994
32440
32160
32666
32988
32910
32832
32774
32740
32648
32808
32674
32456
32822
32996
33029
32971
32647
32915
32644
32866
32772
32775
32839
32836
32840
32754
32890
32820
32880
33016
32936
33170
33320
33333
32093
32040
32476
32524
32612
32724
32742
32890
32884
32876
32760
32752
32720
32874
32914
32914
32905
32922
32874
32912
32724
32800
32696
32640
32698
32994
33036
32981
32811
32761
33053
32888
32887
32974
32630
32752
32906
32290
32438
32758
32908
33161
33149
33058
33128
33160
33184
33186
32644
32180
31819
31994
31777
31972
32448
32996
33252
33286
33360
33552
33648
33340
32936
32276
32363
32536
32396
32600
31740
32064
32923
33272
33222
32932
32846
32967
33038
33092
33048
32956
33035
33024
33056
32989
32992
33036
32948
32640
32676
32522
31738
33120
32740
32634
32864
33316
32878
32530
32487
32690
32769
32514
32512
32880
32898
32774
32864
32865
32560
32788
32960
33072
33173
33132
33096
33236
33200
32665
32402
32316
32345
32429
32644
32714
32933
32952
32944
32936
32884
32824
32792
32794
32896
32989
32856
32650
32760
33016
32693
32752
32774
32838
32876
32930
33008
32786
32715
32784
32750
32624
32670
32749
32728
32702
32825
32916
32779
32768
32852
32946
32952
32862
32352
32868
32996
32838
32772
32775
32816
32796
32718
32784
32786
32820
32809
32904
32792
32908
32866
32824
32825
32841
32846
32850
32778
32756
32856
32768
32744
32736
32784
32816
32736
32834
32841
32832
33008
33017
33000
33080
32989
33122
33260
32864
31434
31892
32408
32601
33256
32374
32530
32802
33006
33074
32664
32864
32890
32962
33004
32896
32863
32898
32824
32930
32866
32775
32856
32876
32868
32760
32744
32768
32728
32760
32828
32852
32828
32768
32760
32793
32866
32763
32832
32800
32940
33096
32749
32954
33328
33114
33180
32402
32298
32504
32696
32860
32992
32860
32286
31922
32272
32956
33108
32992
32696
32632
32673
32973
33116
32912
32164
32316
32812
32936
32982
33048
33016
32992
33010
32928
32903
32864
32880
32892
32908
32848
32825
32797
32816
32809
32836
32688
32864
32923
32953
32775
33128
33356
32184
32452
33159
32292
32472
32920
33280
32360
32644
32835
32968
32684
32592
32720
32824
32696
32711
32973
33010
32861
32716
32704
32882
32834
32872
32996
32864
32744
32752
32866
32754
32808
32816
32856
32804
32849
32734
32747
32761
32793
32794
32832
32835
32760
32790
32861
32934
32747
32648
32993
32770
32740
32944
32903
32733
32846
32688
33002
32656
32745
32836
32628
32582
32775
32832
32864
32966
32944
32930
32912
32708
32496
32420
32588
32824
32880
32868
32874
32907
32936
32888
32932
32840
32800
32838
32828
32818
32760
33192
33209
32826
32578
32426
32656
32800
32868
32775
32618
32646
32764
32802
33052
32954
32930
33142
32600
32533
32318
32571
32824
32925
32914
32880
32839
32813
32816
32770
32669
32770
32839
32845
32880
32852
32829
32802
32775
32775
32802
32890
33030
32862
32842
32858
32876
33072
33010
32584
33102
33080
32786
32979
32410
32314
32460
32466
32578
32678
32390
32600
32850
32740
33011
32848
32832
32792
32830
32912
32954
32885
32916
32906
32967
32944
32918
32843
32834
32804
32822
32788
32800
32856
32817
32708
32720
32762
32828
32902
33144
33224
33194
33028
32784
32863
32916
32557
32202
32506
32594
32660
32490
32388
32216
32572
32852
32912
33057
33042
32944
33013
32896
32610
32750
32906
32998
32960
32876
32921
32868
32900
32920
32888
32966
32913
32937
33068
32752
32700
32676
32464
32280
32750
33104
32914
32808
32818
32596
32825
33124
32896
32699
32821
32772
32775
32681
32406
32614
32828
32903
32752
32804
32892
32894
32848
32788
32850
32872
32884
32840
32775
32868
32832
32884
32896
33040
32993
33290
33077
32736
32690
32328
32088
32242
32314
32402
32616
32834
32976
33014
33050
33018
32994
32854
32956
32920
32788
32736
32784
32892
32934
32946
32888
32772
32540
32568
32733
32832
32828
32796
32856
32848
32784
33394
33218
32716
32548
32758
32828
32448
32440
32656
32785
32824
32848
32900
33068
32582
32636
32840
33200
32680
32598
32800
32812
32864
32816
32794
32860
32832
32826
32794
32850
32834
32824
32804
32764
32809
32752
32810
32848
32880
32824
32880
32899
32848
32994
33345
33193
33318
34018
32926
31488
31680
32136
31952
31840
31665
32494
33092
33221
33060
33216
33276
33112
33104
33064
33012
32864
32552
32772
33104
33080
33020
32988
32925
32872
32450
32172
32664
32864
32880
32864
32864
32912
32836
32756
32720
32878
33026
33156
33269
33382
33018
32510
32610
32730
32324
32262
32624
32604
32488
32692
32514
32646
32948
32924
32940
32874
32876
32908
32967
32966
32809
32808
32893
32872
32840
32868
32811
32792
32824
32780
32802
32789
32868
32802
32802
32828
32758
32852
32852
32835
32827
32792
32868
32920
32988
33033
32912
32656
32732
32660
32516
32301
32448
32658
32916
32942
32560
32556
32712
32914
33000
33037
32986
32932
32852
32988
32760
32788
32952
32776
32626
33045
32678
33072
32651
32676
33056
33138
33016
32600
32446
32727
32888
33016
32647
32720
32928
32564
32568
32944
33140
32960
32838
32979
32944
32686
32470
31874
32240
32694
32992
33072
33052
33184
32984
32588
32836
32576
32560
32716
32912
33428
32966
32512
32592
32775
32821
32898
32884
32810
32774
32800
32900
33080
32870
32861
32970
32954
32843
32808
32546
32200
32458
32920
32932
32866
32784
32824
32950
32841
32898
32960
32776
32738
32820
32708
32692
33030
32985
32594
32600
32775
32476
32580
32821
32932
32904
32980
32912
32882
32872
32820
32818
32850
32840
32864
32872
32972
32938
32868
32826
32968
32804
32792
32866
32528
32764
32839
32596
32212
32340
32694
32834
32964
32928
32968
32996
33001
32714
32824
32784
32752
32771
32844
32880
32940
32852
32821
33088
33122
32642
32724
32489
32541
32762
32872
32950
32850
32788
33244
32808
32256
32376
32856
33144
32996
32948
32978
32894
32828
32648
32230
32322
32519
32876
32872
32825
32900
32820
32918
33000
32921
32838
32914
32918
33010
32681
32568
32764
32868
32878
32948
33032
33002
32970
32884
32844
32540
32312
32492
32480
32800
32841
32872
32775
32834
32974
32890
33058
33040
32834
32900
32523
32678
32794
32816
32928
32904
32861
32832
32812
32935
32904
32722
32326
32494
32887
33021
32868
32804
32946
32880
32785
32756
32750
32746
32868
32924
32928
33032
32832
32780
32888
32900
32482
32304
32424
32793
32800
33008
33244
32972
32952
33210
32256
32276
32487
32504
32658
32872
32998
33253
32664
32775
32880
32918
32942
32872
32861
33120
32892
32706
32825
33000
32864
32690
32543
32554
32480
32924
32680
32736
32824
33072
33072
32612
32750
32868
32942
32926
32802
32802
32936
32836
32813
33004
32816
32656
32808
32744
32700
32810
32914
32884
32904
32628
32640
32808
32873
32940
32675
32512
32851
32568
32324
32329
32708
32968
33040
33032
32864
32864
32936
32994
32816
32824
32902
32856
32986
32954
32976
32850
32688
32622
32733
32714
32903
33108
32736
32762
32832
32656
32697
32770
32828
32809
32712
32570
32797
33178
32562
32772
32998
32984
32708
32724
32770
32797
32654
32788
32700
32800
32880
32929
32856
32868
33032
32760
32642
32876
33033
32922
32674
32626
32612
32680
32763
32868
32784
32796
32824
33192
33091
32784
32656
32826
32838
32752
32473
32666
32764
32839
33116
33084
32960
32838
32608
32669
32647
32252
32242
32584
32930
32878
32912
32904
32888
32912
32952
32856
33105
32841
32868
32772
32728
32864
32984
32736
32700
32932
33182
32890
32843
32904
32927
32878
32732
32800
32674
32100
32168
32768
32495
32562
32901
33024
33014
33097
33036
32906
32824
32817
32841
32898
32696
32720
32679
32816
32864
32826
32775
33023
32829
32826
32836
32810
32826
32741
32804
32844
32848
32763
32790
32752
32775
32812
32866
32796
32850
32986
33246
32856
32970
33084
32773
32528
33479
32476
32208
32420
32578
32348
32568
32716
32612
32604
32312
32464
32826
32984
32980
32956
33112
32992
32992
32980
32944
32968
32930
32856
32894
32866
32816
32835
32821
32784
32775
32850
32818
32862
32864
32789
32740
32744
32636
32896
32955
32912
32752
32802
32845
32706
32784
32930
32647
32696
32634
32705
32836
32700
32714
32800
32974
33236
33024
33002
32908
33044
33213
32674
32104
31864
32404
32775
32843
32490
32288
32625
32924
32974
33040
32996
32976
33029
32924
32925
32872
32932
32812
32834
32820
32812
32872
32816
32736
32770
32944
32872
33005
32994
32848
32860
32633
32880
33096
32785
32381
33235
33083
32636
32508
31996
31992
32484
32548
32664
32894
32928
33028
33149
32970
32940
32972
32930
32903
32856
32892
32925
32944
32928
32868
32844
32874
32813
32646
32664
32797
32904
33032
32957
32948
32872
32793
32981
32196
32124
32748
32825
32520
33116
32729
32714
32774
32888
32936
32688
32775
32994
32925
33136
33162
33028
32815
32752
32828
32698
32280
32580
32688
32734
32740
32808
32704
32938
32996
32840
32878
32836
32616
32240
32452
32797
32912
32708
32691
32896
32962
33031
32976
32879
32836
32900
32956
32848
32925
32829
32728
32725
32884
33156
32680
32634
32784
32784
32736
32664
32756
32948
32896
32866
32866
32832
32808
32776
32658
32775
32928
32632
32864
33034
32968
32996
32864
32808
32724
32640
32508
32396
32650
32808
32966
33192
33276
33136
32930
32968
32928
32624
31920
32248
32465
32752
32800
32818
32928
32948
33184
33204
32513
32984
32976
32993
32922
32976
32940
32616
32722
32418
32540
32304
32020
32498
32952
33044
33002
32885
33081
33211
33072
32816
32796
32814
32944
32850
32834
32853
32988
32635
32664
32772
32808
32836
32790
32968
32800
32949
32920
33102
33088
33093
32872
32498
32050
32464
32298
32182
32722
32998
32954
32958
32984
33036
32834
32976
32784
32718
32881
32932
32784
32681
32794
32829
32816
32968
33012
33532
33140
32432
32141
32052
32768
32876
33122
33092
32892
32866
32920
32656
32263
32316
32936
33225
33104
32480
32518
32802
32404
32696
32866
32934
32960
33100
33060
33184
33432
33286
33108
32292
32044
32332
32752
32580
32004
32263
32666
33008
33256
33074
32840
33118
33340
33042
32836
32880
32996
32914
32741
32677
32600
32708
32690
32760
32924
33005
33052
32748
32775
33069
33044
32970
32796
32681
31788
32396
33176
33000
33012
33144
33400
32784
32620
32967
32744
32280
32205
32274
32118
32684
32989
33140
33374
32632
32601
32720
32962
33034
32581
32816
33128
32910
32812
32691
33056
33287
33024
32488
32360
32548
32843
32966
32952
32932
32675
32422
32317
32921
33554
33456
32918
32728
32824
32796
32688
32458
32570
32660
32708
32844
33016
33096
33195
33468
33368
32910
32708
32324
31769
31645
32448
32972
32771
32739
32524
32476
33094
33548
33096
32745
32804
32856
33120
33016
32584
32880
32456
32472
32443
32936
32912
33400
33864
33264
32992
32836
32610
32464
32968
32576
32184
31849
32452
32904
32486
32746
33048
32998
33376
33577
33504
33444
33863
33017
32132
31244
30888
31684
32080
32775
33122
33016
33048
33109
33476
33257
33135
33560
33444
33565
33458
33160
32205
32504
32364
31498
30820
31458
32482
32432
33236
33284
33912
33541
33799
33682
32460
31582
32320
32704
32642
33170
33628
33496
33368
33300
33064
32690
32754
32071
32246
32724
33140
32924
32700
32832
33458
32720
31852
32188
32905
33001
32903
33248
33706
33704
32370
31565
31800
32972
33162
33488
33806
34768
34836
33608
33112
33300
31720
29120
29492
31178
33228
34182
32306
31572
32418
33336
32300
30272
31283
32476
32656
32037
32824
33580
34203
34872
33818
33056
34392
34092
32302
32152
33040
33074
33538
33568
33705
33138
32962
33195
31867
31676
32848
32900
32352
32612
33224
33314
32985
32434
32541
32772
32838
32492
32382
32146
32450
33342
33608
32646
32429
32866
32720
32536
32676
32660
33049
32836
32666
32736
32914
33616
33024
33209
34272
34008
33228
32592
32552
32785
33180
30722
29392
31506
32962
33650
33720
33202
33333
32925
31987
31862
31620
31098
31595
32978
33021
34648
34770
34936
34144
32968
31892
30538
31064
33768
33552
32496
33106
33824
31980
30020
30496
32784
33864
35276
33864
32592
33756
32852
33445
33469
32880
32813
32970
32920
31616
31954
32466
32392
32340
32066
32258
33268
33664
33138
33442
33244
33150
33114
34178
34518
34299
33472
31813
32145
32512
31768
32955
33490
34008
33816
31940
30280
29642
30900
31562
31088
32402
33570
34702
35108
35304
33925
33386
30846
32596
32736
33158
33070
33628
34672
37346
37544
33186
32120
32458
29880
28410
22292
23668
29560
32348
33010
33365
34336
35288
36036
35898
35016
34728
33752
32368
32216
33798
35088
34708
32232
32428
33520
32976
32622
32282
32996
33480
33725
33160
31760
31457
31793
31831
32906
33506
32756
32535
33016
32724
32997
33190
33324
33472
31668
31552
32495
32426
32996
33825
33786
33036
32622
32750
33924
33728
33648
32472
31033
32263
33178
33452
34652
35888
34360
33496
32125
28992
26512
27858
31429
32451
32754
32970
34529
35547
34898
33256
32837
34914
35632
34376
33244
33496
32136
27528
29532
31133
32097
29955
29554
30493
33300
35208
34516
34626
35800
36724
35640
34516
34244
33549
31264
28152
30064
32040
32153
32780
33433
34378
33524
32200
32932
32992
33660
32860
32568
33351
33144
33244
33049
33620
33555
33159
33456
34640
31922
30460
31224
31532
30507
31924
33198
32797
32722
33048
33588
33762
33712
33839
33328
33668
33890
32282
32178
32424
32408
32640
32460
33290
35172
32634
32012
31864
34076
35218
32272
31432
30940
30648
30400
30388
32004
31568
33580
35330
34614
33916
34570
33216
32922
34000
33012
33248
32426
30472
30949
31603
30072
29853
30771
33580
34749
35556
34882
33922
33986
34004
32568
33044
33536
32934
33125
32498
31312
31424
31124
32600
32900
31778
34290
35060
33952
33274
33924
34492
32868
32282
32236
32108
31028
31958
33592
32916
31766
32149
31950
31942
32909
34226
35361
34096
33756
33532
32456
30308
31444
33268
32930
33503
32596
32841
33705
34498
35324
35051
33368
31740
31680
30632
29960
28300
28604
28736
29352
30892
33704
35200
34140
34722
35276
35316
37184
38400
36032
35044
34904
33540
31040
26076
27400
29713
30960
33387
32624
31597
31676
32690
35197
34436
32148
33744
34030
33050
32160
30900
31781
32484
33720
34516
34600
34306
33870
33176
32832
32216
32568
33136
33421
33132
33656
34680
33272
32324
31045
30274
30960
31327
32524
32942
30910
32034
33340
32710
31972
33785
35847
34444
33656
32903
33376
34720
34311
33545
33037
33604
32308
30808
34154
36056
35923
32664
29986
28764
25642
25794
28276
31880
33307
34744
35110
35104
33876
33466
33252
32988
34060
33964
33742
33232
32082
32184
33398
34064
33908
33620
33604
33500
33852
35012
36794
36408
34951
34083
31308
27096
24922
28432
29314
30090
30506
31239
32466
34333
33432
34048
34027
34360
34464
34122
33415
33282
33126
33632
34568
32980
32884
33576
33577
33287
35508
34946
35064
32968
32164
31751
30278
30552
30384
29442
30866
30746
32288
33580
34680
34540
32868
31144
31626
33088
33492
33104
33632
33416
33832
35590
36416
36676
35220
33240
33000
29454
26119
30584
32386
33948
32908
30480
30727
30691
32960
32270
32410
33120
33317
33509
33388
32216
32359
33040
33448
34656
34816
34728
34132
33980
34196
33230
33872
34434
32980
31958
31086
30930
28736
30628
32224
31562
31897
32242
33510
33532
33444
33714
33628
32796
33055
33604
33504
34068
34136
33166
32352
30614
31376
32984
34272
35348
35876
36284
34672
32692
30089
29698
27736
29784
31516
32170
33100
30712
30642
32484
33348
34420
34630
34347
33266
34232
33760
33432
34420
35160
34180
32622
32248
31644
30844
31096
32196
32889
33380
33380
33188
33448
32865
32520
31321
29920
31789
33244
33501
33573
34264
34656
33526
33092
31896
31418
31900
30715
31138
32484
32544
32637
33186
33799
34104
33403
33581
33936
33829
33480
33576
33466
32688
32120
32728
32844
32616
32554
33499
33576
33560
31784
31769
31838
31776
32326
32036
32510
32602
32552
32504
32263
32604
33480
33870
34212
33428
32876
33458
33380
32322
31920
32338
32635
33384
33394
32442
32598
33476
32861
33240
33955
35156
36264
36602
34480
31708
29336
27712
24048
25586
29200
33312
35132
35236
35129
34888
33794
33482
33512
34132
34978
34320
33410
33228
32756
30434
30892
32317
32608
32144
33132
33824
33280
33632
32327
32711
33024
32358
32644
33784
32981
32448
32584
32896
32746
32885
33216
33626
32755
32968
33188
33384
32838
32969
32868
32774
32728
32458
32840
32698
32320
31812
32291
32288
32800
32850
32730
32704
32560
33060
32608
32472
32494
33000
33160
33250
32808
33026
33028
33256
32868
32414
32294
32120
32400
32775
33074
33342
32992
32800
32772
32772
32848
33336
33124
33186
32396
32390
32300
32640
32890
32900
32720
33001
33624
33250
32360
32890
33088
33188
32644
32484
32640
32742
32528
32827
33315
33128
32652
32514
32374
32946
33956
32982
32244
32216
31560
31618
32636
33464
33273
32752
32994
32960
32792
32643
32200
32690
33026
33176
33167
33182
33016
32800
32906
32772
33072
33408
33431
32736
32414
32260
32161
32698
32840
32636
32544
32608
32794
33226
32943
32916
33098
33172
33250
33196
33066
32472
32320
32368
32046
32002
32699
32892
32992
33008
33132
33112
33152
33112
32918
32635
32412
32472
32753
33021
33156
32775
33001
33287
33044
32378
32196
32640
32944
33116
33138
32760
33048
33234
33388
33364
32770
32624
32524
32742
32140
32345
32462
32410
31876
32278
32700
32074
32106
32476
32986
32988
33234
33430
33193
33032
33272
33202
33210
33192
32860
32920
33084
32856
32832
32864
32775
32792
32736
32890
32938
32788
32648
32775
32652
32582
32810
32910
33000
32788
32720
32708
32834
32860
32848
32528
32574
32590
32880
32740
32750
32918
32792
32756
32962
33068
32580
32924
33020
33000
33024
33028
33088
32580
32600
31925
32024
32586
32938
32836
32987
32908
32752
32682
32888
32775
32775
33168
33024
32838
32644
32688
32848
32922
32910
32868
32904
32775
32818
32850
32774
32829
32845
32800
32796
32824
32864
32925
32816
32700
32966
32824
32684
32568
32775
32676
32626
32797
32962
32808
32768
32944
33095
32808
33096
32896
32576
32416
32608
32696
32920
33124
32993
32768
32762
32796
32824
32867
32952
33082
32352
32712
32900
32444
32616
32696
32800
32780
32808
32674
32864
32966
32970
32834
32736
32846
32706
32821
33378
33208
32308
32761
32440
32624
32651
32521
32696
33066
33010
32811
32760
33130
33562
33138
33148
32708
32532
32081
32188
32824
32905
32835
32745
32818
32884
32978
32740
32493
32517
32667
32850
33015
33016
33230
33147
32808
32912
32792
32730
33244
33016
32416
32702
32888
32482
32725
32612
32668
32736
32793
32752
32628
32738
32927
32741
32864
32998
33040
33040
32775
32872
32885
32802
32784
32700
32868
32968
32600
32664
32835
32732
32752
32972
32658
32489
32792
32792
32812
32869
32882
32754
32907
32876
32764
32850
32832
32740
32965
32764
32908
32692
32973
32716
32732
32740
32730
32802
32784
32797
32784
32923
32914
32646
32652
32775
32829
33042
32946
32652
32635
32788
32972
33004
32908
32752
33080
32770
32586
32608
32722
32668
32775
32800
32548
32680
32702
32882
33248
32898
32656
32745
32740
32752
32768
32932
32780
32744
33020
33180
33234
33648
32878
33024
32626
32240
32456
32516
32421
32360
32429
32523
32780
33030
32844
32664
32832
33476
33287
32708
32922
32858
32816
32944
32741
32716
32570
32497
32662
32882
32933
32808
32832
32836
32966
33058
33022
32932
32768
32728
32680
32760
32800
33024
32658
32524
32954
32720
32698
32724
32592
33088
33305
32578
32512
32642
32904
32728
32762
32909
32781
32792
32856
32912
32754
32572
32749
32702
33020
33020
32904
32852
32750
32965
33052
32820
32747
32940
32589
32600
32748
32680
32768
32872
32876
33006
32626
32573
32690
32620
32902
33026
33050
32944
32647
32720
32633
32692
32802
32796
32986
33000
32944
32644
32677
32775
32784
33033
32992
32802
32392
32546
32885
33192
32952
32664
32903
33200
33636
32496
32451
32531
32775
32504
32775
33130
32456
32402
32692
32762
32936
32900
32918
32860
32828
32844
32885
32856
32770
32836
32912
32954
32912
32524
32698
32894
33000
33069
32846
32646
32624
32562
32824
32642
32600
32638
32923
33020
32860
32716
32802
32804
33006
32903
32896
32789
32552
32728
32836
32885
32834
32840
32740
32968
33001
32424
32526
32738
32860
33026
33256
32918
32856
32728
32880
33138
33116
32774
32060
32104
32608
32802
32709
32954
33060
33024
32796
32968
32812
32698
32770
32796
32834
32864
32816
32914
32768
32738
32890
32866
32744
32680
32730
33134
32724
32560
32620
32840
33104
32984
32728
32738
32822
32659
32724
32972
32684
32749
32710
32746
32824
32996
32918
32826
32876
32800
32712
32762
32760
32828
32906
32933
32707
32578
32864
32724
32860
32882
32900
33038
32896
32775
32864
32843
32693
32724
32720
32696
32756
32864
32771
32774
32775
32738
32856
32836
32828
32936
33006
32916
32837
32778
32662
32888
32800
32770
32672
32809
32775
32596
32666
32784
32872
32984
32728
32744
32596
32732
32842
32858
32820
32812
32850
32812
32930
32982
32838
32775
32882
32898
32860
32666
32801
32992
32500
32698
32681
32768
32818
32775
32736
32780
32848
32844
32803
32772
32896
32865
32884
32804
32825
32816
33052
32818
32680
32604
32698
32886
32696
32542
32716
33097
33100
33065
32691
32612
32577
32722
32956
32646
32600
32770
33034
32900
33046
33012
32612
32680
32764
32738
32775
32898
33127
32712
32736
32670
32760
32832
32794
32773
32808
32837
32826
32801
32866
32801
32801
32720
32794
32892
32824
32761
32732
32850
32722
32638
32880
33011
32864
32890
32856
32802
32860
32958
32893
32636
32716
32708
32746
32800
32797
32810
32840
32846
32800
32746
32775
32792
32821
32864
32896
32900
32722
32770
32833
32624
32706
32736
32668
32841
32760
32536
32765
33024
32967
32900
32854
32665
32856
33159
32982
32708
32932
32847
32808
32513
32632
32666
32784
32850
32714
32720
32859
32827
32629
32998
32874
32860
32860
32816
32885
32770
32928
32948
32972
32568
32809
32775
32736
32684
32680
32809
32832
32802
32730
32684
32766
32912
32824
32841
32764
32770
33112
32556
32754
32824
32868
32737
32761
32832
32754
32775
32800
32869
32878
32812
32826
32857
32839
32704
32700
32980
32986
32708
32884
32784
32728
32704
32732
32770
32804
32856
32816
32952
32895
32770
32802
32828
32824
32752
32876
32780
32736
32696
32798
32828
32800
32793
32772
32824
32828
32824
32848
32816
32925
32921
32800
32610
32706
32820
33432
33340
32232
32936
32201
31986
32700
32941
33074
33124
32953
32796
32992
32802
32768
32672
32748
32864
32902
32792
32746
32772
32954
32797
32744
32780
32744
32774
32714
32761
32754
32841
32903
32930
32861
32889
32770
32828
32824
32804
32804
32790
32748
32800
32834
32785
32756
32788
32792
32844
32952
32992
32816
32739
32450
33080
33336
32706
32340
32523
32712
32744
33032
32826
32641
32684
32772
32792
32802
32829
32717
32850
32844
32836
32908
32882
32818
32754
32765
32864
32948
32889
32810
32738
32763
32841
32796
32804
32724
32804
32824
32832
32824
32838
32772
32774
32824
32838
32808
32786
32788
32994
32818
32692
32772
32724
32665
32872
33264
33158
32240
32666
33088
32864
32533
32701
32744
32752
32912
32761
32672
32672
32788
32850
32856
32848
32824
32824
32892
32834
32832
32808
32834
32816
32853
32770
32843
32796
32824
32775
32809
32756
32866
32872
32634
32690
33124
32868
32809
32892
32720
32716
32832
32810
32754
32733
32731
32893
32861
32792
32770
32792
32786
32843
32974
32842
32850
32688
32768
32802
32873
32792
32800
32857
32849
32775
32808
32904
32962
32775
32896
32609
32360
32648
33005
32940
32724
32810
32916
32809
32708
32796
33028
33058
32696
32576
32712
32792
32770
32744
32738
32930
32928
32825
32826
32809
32752
32904
32920
32796
32740
32906
32916
32756
32850
32698
32809
32902
32754
32548
32694
32960
32656
32711
32802
33108
32800
32628
32765
32744
32696
32864
32981
32936
32918
32817
32754
32746
32733
32820
32800
32712
32832
32914
32810
32828
33280
33102
32262
32696
32440
32692
32859
32832
32810
32816
32818
32846
32809
32775
32810
32992
32900
32774
32832
32746
32793
32762
32698
32768
32826
32800
32820
32826
32770
32784
32832
32872
32856
32840
32810
32690
32754
33287
32722
32585
32730
32810
32827
32928
32824
32774
32852
32824
32889
32840
32793
32704
32528
32976
32802
32708
32704
32842
32846
32748
32864
32900
32926
32848
32754
32756
32784
32858
32824
32750
32795
32844
32940
32804
32822
32824
32732
32804
32865
32738
32738
32752
32852
32768
32874
32906
32852
32630
32758
32774
32788
32724
32832
32925
32948
32836
32775
32834
32744
32792
33022
32914
32516
32772
32760
32656
32912
32940
32894
32864
32748
32746
32768
32834
32770
32794
32846
32864
32902
32824
32666
32690
32655
32940
32885
32775
32816
32930
32914
32800
32602
32658
32725
32832
32914
32861
32768
32816
32792
32775
32775
32858
32898
32832
32820
32772
32864
33044
32708
32708
32880
32869
32896
32828
32750
32530
32640
32752
32872
32832
32908
32690
32632
32796
32876
32898
32868
32902
32895
32858
32792
32680
32728
32900
32850
32864
32888
32736
32674
32770
32682
32885
33008
32775
32666
32651
32750
32816
32864
32876
32696
32786
32840
32744
32700
32914
32884
32824
33042
32924
32804
32658
32686
32714
32765
32896
32996
32647
32756
32844
32844
32784
32972
32711
32646
32828
32900
32726
32730
32808
32800
32804
32804
32808
32820
32872
32868
32832
32885
32831
32824
32870
32760
32754
32770
32778
32853
32930
32800
32712
32733
32711
32747
32740
32910
32850
32860
33036
32824
32698
32746
32710
32670
32956
32910
32626
32812
32705
32792
32760
32752
32728
32888
32900
32856
32881
32878
32832
32840
32756
32796
32771
32924
32890
32769
32728
32768
32840
32888
32816
32886
32684
32784
32900
32848
32760
32770
32760
32752
32818
32948
32826
32496
32500
32708
32876
32928
32956
32854
32754
32839
32868
32748
32684
32748
32826
32874
32932
32918
32728
32620
32598
32804
32942
32928
32852
32989
32912
32910
32910
32900
32952
32710
32404
32516
32676
32616
32504
32699
33060
32766
32800
32880
32848
32894
32912
32794
32938
32868
32844
32775
32789
33020
33055
32837
32592
32941
32672
32722
32820
32856
32801
32808
32808
32730
32688
32727
32694
32732
32822
32864
33060
33287
32388
32512
32844
33008
32672
32800
32792
32844
33031
32800
32588
32745
32712
32776
32775
32775
32824
32840
32775
32989
33038
32726
32400
33120
33008
32502
32764
32864
33162
33100
32480
32652
32756
32752
32638
32632
32728
32624
32756
33216
32686
32408
32664
32962
33050
32700
32810
32866
32952
32925
32928
33004
32928
32916
32656
32142
32528
32804
32960
33090
32934
32898
32861
32775
32843
33040
32752
32592
33286
33523
33102
32095
32002
32601
33192
33192
33084
32522
32368
32384
32174
32538
32420
32216
32584
33128
33264
33320
33284
33132
33112
32992
32747
32594
32633
33154
33284
33316
33320
33612
32900
32105
32212
31872
31876
32312
32442
32698
32756
32448
32516
32710
33084
33178
32912
32700
32937
33463
32952
32716
32832
33082
33096
33001
33154
32914
32775
32364
32420
32910
32878
32903
32900
32706
32568
32700
32880
32992
33102
32916
32832
33120
32848
32795
32594
32626
32921
32948
32845
32870
32944
32608
32504
32720
32808
32784
32916
32808
32440
32608
32856
32964
33010
33056
32918
32802
32746
32704
32674
32636
32708
32728
32867
32843
32930
32948
32828
32884
32808
32684
32792
32800
32840
32832
32800
32832
32748
32754
32908
32835
32952
32838
32760
32825
32890
32901
32906
32933
32706
32554
32556
32712
32784
32645
32210
32388
32596
32702
32932
33008
33234
32994
32626
32890
32938
33148
33029
32352
32512
32764
32911
32980
33018
32997
33032
32774
32916
33378
33548
33354
33416
33064
32336
32732
32400
30336
30662
31776
32552
32928
33096
33332
33397
33376
33266
33114
33096
32920
32737
33060
32970
32946
32870
32809
32680
32592
32652
32647
32819
33284
33156
32974
33024
32504
32590
32850
32966
33034
32704
32649
32811
32760
32552
32767
32826
32722
32622
32696
33001
32664
32888
32972
32984
32838
32912
32958
32856
32712
32804
33042
32768
32220
32512
32820
32672
32592
32876
32966
32786
32628
32654
32872
32882
32730
33140
33118
33218
33014
32832
32908
32845
32986
32728
32450
32650
32754
32970
32769
32594
32560
32508
32710
32960
32670
32282
32690
33060
33070
32402
32736
33058
33212
33600
33664
33088
33155
33460
32906
32178
31620
31976
32198
32528
32504
32576
32896
32921
33136
33234
32940
32226
31485
32128
32912
32914
33148
33146
33158
33082
33116
33092
33024
32930
32838
33156
33188
33107
32781
32666
32616
32802
32660
32570
33225
32813
32544
33104
32760
32364
32552
33052
32992
33122
33346
32377
32444
32860
32788
33019
32878
33074
32649
32763
32724
32326
32480
32731
32552
32857
32852
32840
33010
33024
32809
32754
32832
33018
32626
32590
33872
33881
33650
33256
32652
32263
32180
31436
31529
32254
33098
33204
33287
33265
32125
31700
32412
32728
32972
33222
33496
33722
33613
32995
32722
32683
31872
32200
32324
32603
33280
33930
34404
34178
33016
31192
30952
31590
32192
32424
32243
32836
33297
33012
32948
33248
33412
32907
32756
32586
32626
32736
33176
33668
33317
33392
34416
33996
33504
33096
32356
32012
31840
30882
30454
30952
31794
32720
33248
33268
33592
33532
33336
33276
33369
33284
33228
33415
32540
32822
32484
32838
32560
32516
32940
33172
33278
33090
32930
32844
32781
32892
32436
32642
32157
32068
33090
33168
33120
32472
32175
32556
33157
32923
32680
32874
32552
32918
33476
34099
33996
33720
32784
32448
32128
31714
31394
31528
31076
31019
32576
33920
33992
33365
33127
33186
32996
32966
32454
33028
33376
33316
33755
32952
32484
33244
33650
33081
33240
33208
33688
32706
30522
30500
31328
32220
32982
33784
33629
33287
32872
32472
33184
33380
32632
32474
32813
33072
33316
32824
32556
33060
32852
32796
32364
32509
32656
33378
33536
32660
32516
33516
33200
31840
31844
32717
33400
33340
33240
32976
33234
33202
32952
32632
32802
32316
30990
29748
32480
34311
34768
34672
34588
33885
33364
31476
30920
29640
29200
30336
32236
34154
34760
34439
33862
33933
34190
34125
32752
32256
32988
32044
31616
31776
31388
31938
33404
33544
33345
33180
32200
31906
32192
33560
34690
33344
33060
33536
33584
32836
32084
32498
32740
32784
31424
31101
33712
33876
33333
33756
33250
33408
32932
32252
32674
33506
32720
32664
32880
32690
32360
33168
33448
34000
34344
33958
32824
32998
33419
32320
30984
29832
31648
32196
30728
28218
29108
32170
33512
34360
34308
33948
34986
35335
35136
34732
33993
31549
30765
30854
31194
32964
33850
34264
35178
34456
32194
32616
32784
32632
32258
31748
32412
32280
31384
31525
31876
32488
33024
33562
33506
33656
33412
33184
33190
33252
33458
33216
31204
33210
33642
33968
34466
34429
33219
31796
30401
30372
31386
31450
31417
30498
33138
33448
34306
33770
33744
33632
32908
32933
32384
33368
33358
31570
31842
33352
33708
33708
33868
35152
35826
34668
33196
32866
33360
33450
32367
32506
33251
30066
26064
26714
28404
31665
32330
33193
33888
34164
33209
33636
33666
33854
34152
34436
33424
33307
33458
31730
32578
32613
33395
34722
34354
33099
33040
33572
33704
32892
32642
31968
31892
32632
32560
33088
32570
32120
31618
33156
33864
33416
33112
31852
31760
31860
31640
32256
34728
37324
37796
36824
34100
32364
29270
25276
25678
28449
31572
33210
33048
33540
33244
34588
35345
34972
35312
35400
36116
34120
31368
29344
31021
32056
31056
31084
32704
33212
33402
34600
34036
32954
34200
34760
32792
29137
29546
31192
31648
32072
32730
32824
34256
33284
32768
33672
35492
34000
33264
34021
33382
32228
32328
33872
32612
32048
31298
31341
32744
33524
33644
32754
32719
32544
32820
33256
32962
32473
33112
33093
33910
33626
32656
29781
29876
31660
32448
32858
33304
33932
33306
33036
33860
34217
33481
33176
34108
31700
32392
33184
32288
32304
31196
33384
34682
34376
33200
31789
31164
32820
33120
32880
33098
33630
32918
32860
33420
34034
31524
30820
31201
31238
31714
32126
32876
34694
34788
33220
32032
33573
34043
33864
35060
35430
33298
31448
30906
32744
32077
30394
31300
33556
34338
32196
28960
29361
29904
32491
33016
32134
33116
35472
33469
33776
34644
34748
36168
34136
33488
32714
30896
31448
32492
31492
32360
32910
33674
32512
33508
33904
32240
31024
32562
33844
33106
32644
32876
34176
33286
32184
32296
32358
32354
32034
32732
33196
32916
33724
33276
33032
33048
33612
33525
31904
32900
32916
31924
31828
32120
32263
31380
31992
33950
35840
36768
34457
33194
34274
33162
30722
27693
28380
32456
33272
32552
31888
33106
34218
35064
35472
35136
35724
33592
30548
29676
29140
28858
29626
31140
32984
33712
32912
32488
32992
34464
34620
33302
33016
33237
33860
33195
33270
33356
34144
34706
33142
32932
33522
33428
31930
31928
33546
33444
31672
33372
33664
34068
33616
32330
31505
31220
30424
30372
31148
33193
33008
32774
32955
33404
33705
34208
32220
33352
33660
32402
31962
32504
32636
32284
32816
32881
32911
32388
32586
33424
34664
35696
35662
34796
34695
32369
30480
29312
30658
32481
31728
32592
33632
31764
32181
33072
32923
34106
33168
30236
30844
31724
29928
30721
32586
33494
34533
35222
35073
35016
34369
32176
30110
32048
34828
35124
35040
33840
32620
31400
30654
31392
31517
32359
33434
33857
32412
33176
32988
32108
32032
31088
32496
32910
32968
33445
34016
35162
34812
34875
35380
31969
29784
30538
31944
32740
32380
31792
31932
32448
31968
32444
33108
33468
34506
33370
33196
33920
34540
33828
33500
34376
33840
32775
33344
32968
31714
29555
25160
27932
31904
32832
33386
33740
34210
34446
34240
33790
33415
33245
34504
34973
33868
33145
30720
31210
32724
33641
33385
33671
34580
33132
32626
31428
32924
31786
28938
30112
31968
33547
34100
33710
33832
33372
33693
32602
30292
31013
33214
33396
33358
34094
34349
33992
33214
32752
33398
32881
33228
33077
32260
31562
31442
31708
32114
32432
33152
34224
33890
32952
33396
33528
33075
32974
32220
32000
31402
32488
34248
34900
34498
34496
34192
32256
28616
26300
28828
32488
33764
33665
34268
34164
34344
33072
32989
34200
34216
32568
32512
32880
32898
34016
33516
32476
32584
33033
33054
32392
30181
31152
32884
34658
35344
33114
33881
34812
33184
30432
28794
29114
30810
33166
33778
33114
32710
33234
33192
33099
32861
32392
33506
33799
33102
33098
33444
33408
32602
32144
32826
33287
32932
33280
33168
32374
32614
33912
33799
33121
33512
32832
32820
32407
32402
32520
33412
33027
31736
30428
30616
32226
32562
33337
33885
33730
33360
33097
32508
32566
32826
33130
33204
33394
32864
33146
32764
32800
32496
32396
32624
33856
34708
33872
33136
32753
31936
31484
31301
30636
31788
32712
32376
31408
31369
32798
34576
34712
34114
34244
34145
33632
32832
30184
30532
32424
32700
33514
33770
32788
32940
33164
33088
33232
33056
32784
32824
32522
31858
32390
33370
34616
35420
36100
36136
34616
33008
30956
27600
28167
30100
31920
32272
31328
31388
30372
30333
32428
33640
34298
34104
34619
34772
34382
34188
33708
33328
33517
33042
32600
33004
32966
32984
32756
32781
32678
32696
32720
32656
33154
33514
32960
31539
31330
31972
32993
33536
33386
33300
33816
33408
32627
32312
31943
32422
32849
32734
32754
33032
32720
32688
33091
32976
32686
32566
32620
32638
32841
32804
32965
32360
32268
33149
32500
32184
32793
33052
33195
33195
32976
32360
32784
32712
32903
33232
33138
33202
33211
32762
32390
32728
32568
32410
31876
32502
32640
32952
33427
33488
33208
32902
32604
32821
33132
33018
32818
32616
32696
32704
32963
32764
32696
32436
32666
33204
32232
32232
32800
33250
33177
32784
32614
32484
32800
33150
32796
32496
33070
33347
33072
32444
32446
32640
32744
32550
32647
32560
32924
33160
33474
33144
32893
32848
32731
32552
32552
32606
32647
32732
33058
32868
32848
33287
33417
33388
33697
33756
33720
33154
32521
31764
31108
30250
30408
32312
32998
32152
32822
33329
33018
32918
32984
32910
32872
33195
33581
33758
33512
33162
32826
32768
32830
32736
32760
33030
32808
32841
32864
32892
33032
32968
32712
32672
32681
32833
32966
32900
33220
33328
32318
32658
31736
32184
32736
32770
32885
32972
33180
32797
32816
32921
32973
32850
32705
32728
32740
32678
32604
32605
32800
32840
32944
33123
32844
32928
32800
32828
32944
32809
32825
32660
32616
32600
32678
32956
32885
32711
32699
32792
32936
32892
32816
32696
32760
32756
32843
32918
32916
32901
32848
32867
32976
32903
32332
32498
32737
33102
33256
33117
32989
32728
32650
32316
32448
32138
32354
32918
32988
32826
33064
33225
33134
33122
32832
32560
32568
32621
32620
32644
32954
33249
33313
33344
33316
32768
33206
32328
32126
32672
32837
32712
32637
32681
32834
32572
31751
32228
32573
32570
32658
32892
33032
33114
33225
33240
32996
32884
33032
32775
32775
32870
32896
32839
32816
32969
32998
32824
32828
32940
32948
32647
32808
32832
32829
32850
33060
32800
32876
32808
32651
32650
32813
32804
32682
32666
32872
33002
32745
32596
32747
32836
32824
32758
32632
32714
32769
32706
32784
32832
32956
32954
33026
32912
32715
32644
32580
32714
32802
32836
32985
32784
33076
32993
32756
32646
32841
32672
32616
32658
32712
32908
32926
32917
32887
32944
32730
32592
32482
32582
32682
32646
32676
32700
32992
33516
33530
33085
32944
32800
32578
32544
32722
32762
32765
32716
32874
32762
32770
32836
32616
32704
32539
32462
32616
32640
32728
32856
33038
33353
33432
33400
32978
32754
32809
32700
32484
32672
32812
32738
32440
32324
32707
32928
32860
32861
32743
32897
33028
33082
33104
33072
32864
32596
32442
32764
32853
32656
32492
32835
32812
32456
32480
32775
32860
32894
32900
32984
32752
32821
32840
32829
32872
32648
32651
32730
32866
33408
33274
32904
32910
32908
32722
32724
32592
32644
32724
32912
33074
33029
32792
32760
32588
32647
32448
32962
32608
32440
32580
32853
32775
33008
33010
32980
32848
32832
32974
32924
32884
32885
32780
32769
32651
32668
32674
32746
32608
32662
32730
32952
33177
32638
32762
32796
32792
32914
32936
32706
32651
32914
33074
32936
32903
32598
32792
32745
32761
32775
32900
32901
32678
32860
33088
32523
32634
32742
32839
32775
32824
32772
32720
32492
32580
32788
32792
32884
32848
33004
32904
32752
32896
32898
32985
32988
32921
32774
32724
32953
32940
32904
32584
32402
32532
32722
32740
32820
32868
32896
32984
32848
32775
32768
32744
32752
32680
32775
32890
32984
32708
32824
32936
32988
32960
32856
32811
32752
32764
32842
32706
32696
32696
32792
32820
32784
32812
32925
33196
33080
32794
32768
32874
32774
32322
32258
32592
32624
32632
32812
32977
32632
33152
33544
33780
33760
33408
33022
32674
32414
31344
30640
31136
32890
33904
34260
34081
33952
33528
32628
31488
30727
31490
31874
32328
32706
33104
33442
33398
33312
33268
33140
32508
32252
32544
32768
32948
33142
33072
33222
33392
33217
33108
32924
32798
32747
32768
32952
32826
32754
32810
32700
32578
32746
32940
32772
32829
32967
32858
32825
32651
32560
32616
32745
32192
32500
32873
32805
32938
33261
33376
32834
32618
32872
32754
32827
32813
32666
32816
32820
32844
32736
32760
32796
32775
32760
32864
32928
32940
32646
32768
32832
32680
32626
32685
32898
32788
33081
32756
32406
32804
32992
32962
32940
32722
32712
32903
32938
32576
32712
32808
32775
32704
32720
32744
32818
32872
32837
32892
33070
33080
32972
32775
32836
32808
32448
32340
32728
32808
32850
32706
32892
32988
32720
32736
32484
32592
32686
32992
33198
33056
32893
32872
32816
32896
32789
32756
32754
32768
32864
32944
32922
32752
32728
32706
32644
32934
32808
32614
32848
32856
32754
32844
32772
32798
32784
32846
32775
32760
32992
32996
32816
32775
32834
32922
32729
32764
32816
32674
32632
32706
32775
32840
32808
32746
32796
32964
33202
32976
33110
32997
32960
32846
32660
32349
32171
32272
32552
32929
32812
32800
32834
32904
32890
32756
32894
33159
33068
33042
32864
32774
32216
31992
32582
32968
32736
32800
32869
33068
32944
32850
32914
32906
32816
32900
32944
32861
32731
32894
33010
33075
32704
32628
32775
33030
32930
32880
32912
33058
33516
32704
32408
32391
32012
32248
32640
32816
32992
32850
32844
32952
33192
33308
33170
32918
33018
33176
33181
32743
32276
32256
32670
33018
32651
31592
31412
32345
32996
32804
32712
32897
33099
33188
33256
33110
32884
32952
32788
32902
32848
32652
32689
32960
33104
33193
33020
32932
32819
32712
32749
32584
32800
32992
32899
32902
32570
32608
32786
32902
32857
32824
33092
32441
32646
32816
32940
32898
32960
33128
32514
32586
33044
32731
32058
32329
32760
32900
33048
33144
32845
32800
32877
32736
32700
32754
32820
32836
32826
32838
32848
32840
32954
32928
32682
32946
32976
32400
32930
32852
32665
32492
32993
33016
33220
33206
33044
32988
32848
32440
32160
32344
32714
32988
32909
32848
32864
33040
32760
31986
32050
32674
32864
32956
33113
33112
32804
32720
32800
32897
33174
33072
32950
32656
32712
32828
32708
32812
32872
32928
32804
32866
32896
32840
32836
32646
32680
32732
32800
32994
32820
32711
32638
32736
32938
32956
32844
32882
32868
32754
32594
32768
32660
32664
32920
32864
32808
32840
32890
32852
32801
32794
32832
32836
32888
32887
32725
32642
32775
32688
32614
33184
33852
33944
33861
33297
32688
32276
32084
31289
30904
31453
32376
32978
32720
32736
32986
33240
33232
33236
33076
32984
32808
32866
32968
32944
33136
32884
32882
32843
32856
32864
32844
32800
32874
32944
32892
32876
32761
32808
32816
32888
32818
32962
33126
33052
32928
33202
32939
32234
32024
31538
32262
33056
33460
33452
33456
33344
33082
32572
31360
31496
32295
32474
32827
33074
33393
33344
33136
33120
33052
32813
32642
32885
32740
32678
32720
32724
32708
32688
32884
32976
33032
32942
32836
32768
32876
32898
32784
33110
32768
32450
32708
32745
32558
32978
33260
32844
32694
32792
32948
32837
32708
32602
32578
32832
32748
32810
32763
32869
32880
32925
32882
32871
32816
32793
32800
32832
32824
32758
32730
32748
32884
33102
32551
32624
32845
32832
32740
32809
32857
32903
32902
32736
32892
32850
32664
32588
32676
32728
32706
32852
33060
32851
32694
32919
32832
32820
33128
33120
32752
32684
32569
32696
32792
32770
33066
33162
33189
32576
32304
32322
32091
31968
32666
32868
32994
32978
32984
33180
33094
32984
33000
33024
32804
32764
32670
32488
32681
32892
32868
32837
32816
32775
32880
32973
33052
33042
33000
32852
32784
32568
32560
32340
32502
32704
32765
32922
32768
32754
32851
32906
33094
32962
32664
32754
33002
32818
32793
32918
32836
32772
32834
32812
32790
32816
33056
32612
32564
32664
32728
32841
32872
32874
32828
32832
32840
32799
32837
32784
32803
32760
32739
32764
32794
32750
32832
32825
32818
32804
32816
32838
32786
32824
32825
32850
32832
32775
32772
32864
32880
32789
32809
32800
32760
32768
32775
32868
32828
32818
32816
32810
32702
32836
32905
32775
32754
32786
32850
32820
32759
32706
32794
32870
32834
32846
32890
32880
32827
32731
32736
32775
32821
32892
32792
32800
32887
32817
32632
32880
32939
32744
32738
32726
32738
32775
32712
32704
32656
32706
32885
32884
32844
32972
33056
33000
32960
32752
32834
32796
32808
32812
32760
32712
32704
32768
32676
32740
32725
32938
33044
32885
32632
32816
32740
32816
32938
32850
32924
32930
32634
32646
32706
32775
32772
32784
32850
32728
32816
32841
32900
32800
32836
32914
32864
32796
32755
32712
32818
32745
32784
32840
32832
32812
33056
32874
32856
32770
32724
32964
32784
32726
32672
32670
32740
32760
32672
32682
32800
32770
32925
33032
32826
32796
32852
32808
32933
32936
32733
32836
32918
32742
32728
32774
32774
32808
32832
32775
32792
32885
32940
32832
33018
33124
33016
32824
32744
32760
32420
32406
31801
31670
32472
33321
33182
32980
33252
33066
32940
32828
32829
32986
32752
32868
32953
32792
32781
32792
32774
32797
32750
32775
32714
32664
32768
32856
32840
32916
32861
33060
33032
32892
32775
32774
32784
32869
32748
32626
32552
32868
32868
32848
32788
32811
32852
32906
32756
32681
32728
32828
32750
32808
32796
32784
32817
32890
32684
32688
32692
32951
32712
32712
32724
32802
32826
32832
32768
32736
32744
33047
33056
32760
32728
32640
32724
32936
33032
32885
33004
33220
33052
32936
32808
32902
32866
32736
32216
32228
32539
32696
32740
32768
32744
32658
32803
32838
32912
32954
32900
32860
32836
32648
32489
32700
32802
32903
33144
33240
33211
33000
32756
32728
32894
32729
32716
32618
32634
32774
32824
32750
32694
32656
32752
32875
32874
32940
32878
32872
32892
32850
32556
32580
32676
33016
33320
32990
32708
32698
32792
32750
32864
32880
32826
32824
32706
32701
32715
32730
32750
32864
32809
32736
32792
32736
32792
32857
32804
32736
32774
32822
32760
32749
32752
32841
32928
32884
32800
32809
32998
32992
32714
32608
32624
32733
32700
32766
33001
32902
32876
32824
32792
32768
32760
32792
32746
32736
32760
32754
32797
32917
32894
32752
32884
32872
32720
32722
32903
32928
32741
32592
32586
32616
32954
33136
32789
32848
32970
32981
32868
32752
32740
32664
32752
32740
32624
32648
32892
32796
32864
32904
33002
33142
33078
33272
33148
32918
32376
31856
31982
32521
32801
32716
32812
33072
32788
32712
32400
32648
32990
33056
32986
32937
32912
32808
